Time,Vin,RawSignal,Event
Verified data,Verified data,For Reference Only,For Reference Only
0.002,211.504333496,164.501235962,0
0.004,-1210.830810547,-978.302612305,0
0.006,4218.390136719,3461.780517578,0
0.008,-9631.500000000,-8079.536132813,0
0.010,16382.987304688,13949.225585938,0
0.012,-18433.298828125,-16229.724609375,0
0.014,7580.232421875,7609.527832031,0
0.016,-6273.011718750,-4856.160644531,0
0.018,-842.666564941,446.582092285,0
0.020,-2260.076171875,-755.078247070,0
0.022,-2049.056640625,-423.151275635,0
0.024,-2051.084716797,-330.690765381,0
0.026,-2055.165527344,-260.374603271,0
0.028,-2058.307617188,-204.954696655,0
0.030,-2059.526855469,-160.355453491,0
0.032,-2062.024169922,-126.661506653,0
0.034,-2056.931152344,-94.552078247,0
0.036,-2050.467041016,-68.512092590,0
0.038,-2059.074218750,-59.980846405,0
0.040,-2061.442871094,-48.493461609,0
0.042,-2056.118164063,-33.575191498,0
0.044,-2057.907714844,-27.505493164,0
0.046,-2059.136718750,-22.348867416,0
0.048,-2059.826660156,-17.918828964,0
0.050,-2065.916748047,-18.673229218,0
0.052,-2064.372314453,-13.322393417,0
0.054,-2062.913330078,-9.226876259,0
0.056,-2066.805908203,-10.203930855,0
0.058,-2067.553222656,-8.517496109,0
0.060,-2067.991455078,-6.965409756,0
0.062,-2066.080566406,-3.931388855,0
0.064,-2063.595214844,-1.124654889,0
0.066,-2060.129394531,1.820972800,0
0.068,-2060.219726563,1.346072793,0
0.070,-2055.433593750,4.769292831,0
0.072,-2052.270019531,6.169904709,0
0.074,-2057.209716797,0.956907034,0
0.076,-2057.112792969,0.819568336,0
0.078,-2055.307373047,2.041748762,0
0.080,-2061.776367188,-3.443443060,0
0.082,-2064.034912109,-4.434739590,0
0.084,-2060.177001953,-0.448678672,0
0.086,-2063.890869141,-3.237437487,0
0.088,-2064.531250000,-3.016118288,0
0.090,-2062.245117188,-0.567703485,0
0.092,-2068.222167969,-5.090364933,0
0.094,-2062.786132813,0.268812686,0
0.096,-2059.754150391,2.567392111,0
0.098,-2066.303222656,-3.097007513,0
0.100,-2063.711914063,-0.393247008,0
0.102,-2061.428222656,1.470280886,0
0.104,-2063.219726563,-0.249790877,0
0.106,-2060.579833984,1.859053016,0
0.108,-2060.927734375,1.175250173,0
0.110,-2061.944335938,0.123450100,0
0.112,-2062.660400391,-0.460965693,0
0.114,-2064.793945313,-2.017868280,0
0.116,-2066.324951172,-2.760294676,0
0.118,-2063.499267578,0.050915100,0
0.120,-2063.713134766,-0.126764104,0
0.122,-2064.320800781,-0.571313620,0
0.124,-2070.009033203,-4.868372440,0
0.126,-2074.526123047,-7.299715042,0
0.128,-2074.028320313,-5.290254116,0
0.130,-2072.772460938,-3.137863398,0
0.132,-2072.694091797,-2.379640341,0
0.134,-2073.458984375,-2.445662975,0
0.136,-2075.432373047,-3.436916590,0
0.138,-2069.863525391,1.658105493,0
0.140,-2069.317138672,1.714468122,0
0.142,-2075.259521484,-3.288197279,0
0.144,-2071.841552734,0.100912817,0
0.146,-2071.512451172,0.334346294,0
0.148,-2076.720214844,-3.790410042,0
0.150,-2072.370361328,0.435114801,0
0.152,-2067.274414063,4.302039146,0
0.154,-2072.153320313,-0.448748410,0
0.156,-2073.383056641,-1.305455804,0
0.158,-2069.029296875,2.370898008,0
0.160,-2072.199707031,-0.621969998,0
0.162,-2075.071533203,-2.717226267,0
0.164,-2072.586425781,-0.180669561,0
0.166,-2073.450195313,-0.812249422,0
0.168,-2071.306640625,1.035409451,0
0.170,-2075.390625000,-2.371007919,0
0.172,-2075.805419922,-2.166705847,0
0.174,-2069.625976563,3.120913744,0
0.176,-2070.369628906,1.848922253,0
0.178,-2071.434082031,0.610286653,0
0.180,-2070.760009766,0.998778284,0
0.182,-2076.082031250,-3.362482071,0
0.184,-2075.358398438,-2.052376032,0
0.186,-2069.114013672,3.260531664,0
0.188,-2069.772460938,2.023786306,0
0.190,-2070.426513672,1.065230608,0
0.192,-2066.833984375,3.622761965,0
0.194,-2067.032470703,2.663290977,0
0.196,-2067.222656250,1.923454642,0
0.198,-2064.706542969,3.452870131,0
0.200,-2060.806152344,5.719244003,0
0.202,-2057.802490234,6.784352303,0
0.204,-2051.101074219,10.488883972,0
0.206,-2048.088867188,10.500654221,0
0.208,-2048.913818359,7.525364399,0
0.210,-2047.871459961,6.663782597,0
0.212,-2042.578735352,9.299335480,0
0.214,-2044.395751953,5.819490433,0
0.216,-2051.480224609,-0.983822465,0
0.218,-2052.872314453,-1.847826123,0
0.220,-2050.902832031,0.094623782,0
0.222,-2058.643554688,-5.946983814,0
0.224,-2054.217529297,-1.183035731,0
0.226,-2053.059082031,-0.019077746,0
0.228,-2067.998046875,-11.633825302,0
0.230,-2054.073974609,1.781343579,0
0.232,-2036.946655273,14.706466675,0
0.234,-2028.751464844,17.812179565,0
0.236,-2011.981811523,26.896612167,0
0.238,-2006.716918945,25.014221191,0
0.240,-1998.802124023,25.611108780,0
0.242,-1979.296386719,35.090377808,0
0.244,-1972.329956055,32.710460663,0
0.246,-1973.417602539,24.595193863,0
0.248,-1982.911010742,11.745658875,0
0.250,-1994.246948242,0.318694800,0
0.252,-2012.400390625,-13.871252060,0
0.254,-2025.333374023,-20.847471237,0
0.256,-2033.661987305,-22.692287445,0
0.258,-2038.525146484,-21.431716919,0
0.260,-2033.986328125,-13.138763428,0
0.262,-2031.991943359,-8.667701721,0
0.264,-2036.674072266,-10.383060455,0
0.266,-2030.464599609,-3.246049881,0
0.268,-2026.502319336,0.556980789,0
0.270,-2035.469238281,-6.540930271,0
0.272,-2038.768676758,-7.653512001,0
0.274,-2038.765502930,-5.950160027,0
0.276,-2053.810058594,-16.329004288,0
0.278,-2068.114013672,-23.825403214,0
0.280,-2069.697021484,-19.761762619,0
0.282,-2078.143066406,-21.939123154,0
0.284,-2077.369384766,-16.461763382,0
0.286,-2076.041503906,-11.770633698,0
0.288,-2082.298339844,-14.021352768,0
0.290,-2085.350097656,-13.278808594,0
0.292,-2090.366943359,-14.229743958,0
0.294,-2091.472900391,-11.927712440,0
0.296,-2090.024658203,-8.150622368,0
0.298,-2089.780273438,-6.149143696,0
0.300,-2095.900634766,-9.542742729,0
0.302,-2095.690429688,-7.258631706,0
0.304,-2095.794189453,-5.726130009,0
0.306,-2099.577148438,-7.395908356,0
0.308,-2098.739990234,-5.101146221,0
0.310,-2100.669921875,-5.468658924,0
0.312,-2097.453613281,-1.751750231,0
0.314,-2091.901611328,2.955738783,0
0.316,-2098.968017578,-3.197219133,0
0.318,-2101.053466797,-4.108697414,0
0.320,-2096.358398438,0.456171542,0
0.322,-2096.613525391,0.156252339,0
0.324,-2100.254638672,-2.710374117,0
0.326,-2102.219970703,-3.636566162,0
0.328,-2098.631591797,-0.037551828,0
0.330,-2094.934814453,2.846137524,0
0.332,-2100.442382813,-2.070009232,0
0.334,-2099.561279297,-0.924805343,0
0.336,-2093.629394531,3.894484043,0
0.338,-2096.610351563,0.710420251,0
0.340,-2101.278564453,-3.078321457,0
0.342,-2100.066650391,-1.451486468,0
0.344,-2101.413574219,-2.176601887,0
0.346,-2102.356689453,-2.426442623,0
0.348,-2102.025878906,-1.629870296,0
0.350,-2112.437744141,-9.365583420,0
0.352,-2129.381347656,-20.462503433,0
0.354,-2168.000244141,-45.951641083,0
0.356,-2251.075927734,-100.353210449,0
0.358,-2356.614990234,-160.136383057,0
0.360,-2460.248779297,-205.151840210,0
0.362,-2540.113525391,-221.676834106,0
0.364,-2566.965087891,-193.297348022,0
0.366,-2544.373779297,-132.769653320,0
0.368,-2515.468261719,-80.782035828,0
0.370,-2491.548583984,-44.225849152,0
0.372,-2393.354003906,41.975204468,0
0.374,-2230.315185547,159.453369141,0
0.376,-2053.052246094,261.886932373,0
0.378,-1766.667114258,426.428344727,0
0.380,-1383.751831055,629.481323242,0
0.382,-968.183532715,812.805786133,0
0.384,-419.623718262,1058.826171875,0
0.386,136.300430298,1255.900634766,0
0.388,448.332611084,1219.487426758,0
0.390,478.765258789,972.147460938,0
0.392,283.734130859,604.415954590,0
0.394,42.657539368,282.593627930,0
0.396,-381.515716553,-110.116065979,0
0.398,-901.745971680,-490.263000488,0
0.400,-1132.831542969,-561.041625977,0
0.402,-1254.421142578,-530.928466797,0
0.404,-1444.300537109,-560.621032715,0
0.406,-1690.916625977,-627.842956543,0
0.408,-1971.735473633,-706.727844238,0
0.410,-2168.759277344,-702.908874512,0
0.412,-2246.619873047,-607.257141113,0
0.414,-2249.827880859,-474.800140381,0
0.416,-2247.982177734,-367.848632813,0
0.418,-2250.192138672,-287.819610596,0
0.420,-2236.854980469,-213.483642578,0
0.422,-2224.833984375,-156.691101074,0
0.424,-2204.182373047,-105.807052612,0
0.426,-2185.120117188,-67.467414856,0
0.428,-2184.004638672,-51.606311798,0
0.430,-2183.565185547,-39.795913696,0
0.432,-2179.062011719,-27.449645996,0
0.434,-2163.844238281,-9.513563156,0
0.436,-2142.591796875,9.130151749,0
0.438,-2123.910156250,21.631134033,0
0.440,-2115.546875000,23.328722000,0
0.442,-2109.118164063,23.144321442,0
0.444,-2096.547119141,27.778266907,0
0.446,-2091.909179688,25.212301254,0
0.448,-2090.354492188,20.818523407,0
0.450,-2085.660400391,19.842935562,0
0.452,-2084.234619141,16.542049408,0
0.454,-2080.985595703,15.392813683,0
0.456,-2073.465576172,17.820877075,0
0.458,-2074.571533203,13.000315666,0
0.460,-2075.298583984,9.545840263,0
0.462,-2073.986816406,8.444705963,0
0.464,-2076.201660156,4.845234871,0
0.466,-2073.562744141,5.821098804,0
0.468,-2069.244873047,7.885660648,0
0.470,-2069.789550781,5.709592342,0
0.472,-2065.389404297,7.863064289,0
0.474,-2064.539062500,6.777043343,0
0.476,-2067.343261719,3.089904308,0
0.478,-2067.365722656,2.385734081,0
0.480,-2067.964111328,1.390067577,0
0.482,-2060.800781250,6.652695656,0
0.484,-2058.932617188,6.627243519,0
0.486,-2059.468994141,4.737308025,0
0.488,-2054.242675781,7.749223232,0
0.490,-2050.338623047,9.063700676,0
0.492,-2049.539794922,7.670653820,0
0.494,-2048.076904297,7.103723526,0
0.496,-2048.313476563,5.341055393,0
0.498,-2047.560913086,4.739500999,0
0.500,-2046.155029297,4.779678345,0
0.502,-2041.099975586,7.649120331,0
0.504,-2034.480957031,11.097270966,0
0.506,-2039.673339844,4.592658520,0
0.508,-2040.791870117,2.702104568,0
0.510,-2040.116455078,2.626875162,0
0.512,-2042.241577148,0.390305221,0
0.514,-2035.264282227,5.730202198,0
0.516,-2029.154296875,9.208996773,0
0.518,-2031.575073242,5.279587746,0
0.520,-2027.854125977,7.000371933,0
0.522,-2026.012329102,6.877137184,0
0.524,-2019.549438477,10.375408173,0
0.526,-2018.573730469,8.828561783,0
0.528,-2020.840087891,5.103855610,0
0.530,-2015.791625977,7.896175861,0
0.532,-2013.376586914,8.019698143,0
0.534,-2015.987304688,4.206950188,0
0.536,-2011.815307617,6.516852379,0
0.538,-2005.358276367,10.090713501,0
0.540,-2004.686035156,8.371068001,0
0.542,-2004.597290039,6.579794884,0
0.544,-1997.103027344,10.946259499,0
0.546,-1990.448608398,13.689296722,0
0.548,-1988.283813477,12.330821991,0
0.550,-1985.663208008,11.628705978,0
0.552,-1985.619995117,9.078044891,0
0.554,-1982.698486328,9.332829475,0
0.556,-1976.072143555,12.412544250,0
0.558,-1974.826538086,10.622866631,0
0.560,-1975.522338867,7.720975876,0
0.562,-1971.479736328,9.149358749,0
0.564,-1967.251953125,10.404255867,0
0.566,-1961.234130859,12.772562981,0
0.568,-1957.412841797,12.906187057,0
0.570,-1951.184082031,14.882537842,0
0.572,-1952.331542969,10.682689667,0
0.574,-1949.681396484,10.369855881,0
0.576,-1942.578125000,13.590063095,0
0.578,-1943.681640625,9.711628914,0
0.580,-1941.457641602,9.283116341,0
0.582,-1931.094848633,15.279984474,0
0.584,-1927.437011719,14.729151726,0
0.586,-1927.944335938,11.061291695,0
0.588,-1922.463989258,12.865554810,0
0.590,-1915.337524414,15.549137115,0
0.592,-1910.571411133,15.800556183,0
0.594,-1910.406738281,12.417224884,0
0.596,-1905.129272461,13.762388229,0
0.598,-1898.545410156,15.824664116,0
0.600,-1889.090942383,19.661338806,0
0.602,-1882.712402344,20.252901077,0
0.604,-1876.267333984,20.764883041,0
0.606,-1869.441894531,21.458827972,0
0.608,-1862.367797852,22.191946030,0
0.610,-1851.885498047,25.413024902,0
0.612,-1844.299194336,25.665813446,0
0.614,-1840.277587891,23.089879990,0
0.616,-1824.757080078,30.029926300,0
0.618,-1813.247314453,32.308227539,0
0.620,-1804.232299805,32.139888763,0
0.622,-1797.611450195,30.146883011,0
0.624,-1792.441528320,27.468235016,0
0.626,-1781.463989258,29.901887894,0
0.628,-1767.472167969,34.139106750,0
0.630,-1759.050170898,33.102600098,0
0.632,-1749.033203125,33.537006378,0
0.634,-1736.005981445,36.216178894,0
0.636,-1720.445068359,40.270549774,0
0.638,-1706.383300781,42.257976532,0
0.640,-1702.188110352,36.129753113,0
0.642,-1689.751342773,37.773483276,0
0.644,-1671.262084961,43.759311676,0
0.646,-1659.522705078,43.165046692,0
0.648,-1647.138793945,43.204257965,0
0.650,-1639.631835938,39.441535950,0
0.652,-1632.425415039,36.281246185,0
0.654,-1622.865112305,35.654064178,0
0.656,-1613.781494141,34.795566559,0
0.658,-1605.483398438,33.516864777,0
0.660,-1601.258544922,29.354238510,0
0.662,-1599.488403320,24.207509995,0
0.664,-1596.330688477,21.283792496,0
0.666,-1601.475097656,12.552698135,0
0.668,-1607.971801758,4.710134983,0
0.670,-1609.131835938,2.761166096,0
0.672,-1615.924316406,-3.135411978,0
0.674,-1626.509765625,-10.671614647,0
0.676,-1636.849487305,-16.341918945,0
0.678,-1649.498779297,-22.548486710,0
0.680,-1666.233764648,-30.553379059,0
0.682,-1679.729370117,-34.259891510,0
0.684,-1695.378173828,-38.817401886,0
0.686,-1707.627441406,-39.717922211,0
0.688,-1719.569213867,-40.179328918,0
0.690,-1737.816772461,-45.442535400,0
0.692,-1752.607299805,-46.847267151,0
0.694,-1772.578125000,-51.969005585,0
0.696,-1786.440917969,-51.201839447,0
0.698,-1797.448730469,-48.384609222,0
0.700,-1814.618652344,-50.986179352,0
0.702,-1826.622192383,-48.991386414,0
0.704,-1835.479858398,-44.993129730,0
0.706,-1851.193481445,-47.215797424,0
0.708,-1866.423095703,-48.567951202,0
0.710,-1879.752441406,-48.141799927,0
0.712,-1888.940673828,-44.589389801,0
0.714,-1895.654296875,-39.901817322,0
0.716,-1901.241577148,-35.379928589,0
0.718,-1906.850341797,-31.879749298,0
0.720,-1913.115478516,-29.667846680,0
0.722,-1923.221923828,-30.935190201,0
0.724,-1932.685546875,-31.420846939,0
0.726,-1939.494384766,-29.733827591,0
0.728,-1943.411376953,-26.172521591,0
0.730,-1951.810546875,-26.888771057,0
0.732,-1957.038574219,-24.979335785,0
0.734,-1956.591430664,-19.080348969,0
0.736,-1960.663452148,-18.007160187,0
0.738,-1969.031494141,-20.513797760,0
0.740,-1974.858764648,-20.487258911,0
0.742,-1978.465087891,-18.739213943,0
0.744,-1977.952392578,-14.176012039,0
0.746,-1978.437988281,-11.403311729,0
0.748,-1979.229980469,-9.485071182,0
0.750,-1985.008300781,-11.871375084,0
0.752,-1991.952758789,-14.634335518,0
0.754,-1989.266479492,-9.292815208,0
0.756,-1988.784301758,-6.852644444,0
0.758,-1994.367675781,-9.672331810,0
0.760,-1992.930419922,-6.405036449,0
0.762,-1992.375244141,-4.549746513,0
0.764,-1995.546752930,-6.005410194,0
0.766,-1993.077514648,-2.750270128,0
0.768,-1997.673095703,-5.713430405,0
0.770,-1998.293212891,-4.926010609,0
0.772,-1996.591308594,-2.507565737,0
0.774,-2001.907836914,-6.085373878,0
0.776,-2008.640136719,-9.969109535,0
0.778,-2009.421142578,-8.361152649,0
0.780,-2009.938110352,-6.905050755,0
0.782,-2008.611206055,-4.338574409,0
0.784,-2005.254272461,-0.763407230,0
0.786,-2007.123657227,-2.047775030,0
0.788,-2011.183837891,-4.750495434,0
0.790,-2012.325073242,-4.582410336,0
0.792,-2013.177978516,-4.227440357,0
0.794,-2011.614868164,-2.072264194,0
0.796,-2011.285522461,-1.355562449,0
0.798,-2014.349975586,-3.437731028,0
0.800,-2010.945800781,-0.026141830,0
0.802,-2015.416259766,-3.497236490,0
0.804,-2018.073364258,-4.786733150,0
0.806,-2014.283935547,-0.775587738,0
0.808,-2021.078002930,-5.887485981,0
0.810,-2020.782470703,-4.349201202,0
0.812,-2015.690673828,0.577584565,0
0.814,-2019.400146484,-2.435956717,0
0.816,-2018.412109375,-1.126078963,0
0.818,-2017.422607422,-0.106291771,0
0.820,-2018.579833984,-0.982714772,0
0.822,-2016.650634766,0.736134410,0
0.824,-2017.874145508,-0.379049599,0
0.826,-2018.502685547,-0.783623993,0
0.828,-2018.429077148,-0.552278578,0
0.830,-2018.487548828,-0.475041658,0
0.832,-2019.540771484,-1.188609600,0
0.834,-2022.783569336,-3.446625233,0
0.836,-2019.767700195,-0.334984124,0
0.838,-2020.131958008,-0.543861985,0
0.840,-2023.005004883,-2.657546043,0
0.842,-2022.500488281,-1.674577236,0
0.844,-2023.316650391,-1.937167525,0
0.846,-2021.079956055,0.232956141,0
0.848,-2020.755859375,0.433254927,0
0.850,-2023.119873047,-1.501684785,0
0.852,-2022.624023438,-0.782325804,0
0.854,-2016.911132813,3.834874630,0
0.856,-2017.637817383,2.417408705,0
0.858,-2021.197021484,-0.888020158,0
0.860,-2020.517822266,-0.162414625,0
0.862,-2021.502075195,-0.891880274,0
0.864,-2024.672363281,-3.159453392,0
0.866,-2023.134643555,-1.261331558,0
0.868,-2019.659301758,1.722038507,0
0.870,-2022.317382813,-0.728054047,0
0.872,-2027.350219727,-4.480594158,0
0.874,-2022.140625000,0.566927552,0
0.876,-2021.873657227,0.648640692,0
0.878,-2026.473266602,-3.072918415,0
0.880,-2023.226196289,0.135417476,0
0.882,-2023.590942383,-0.178349406,0
0.884,-2021.073486328,1.819224715,0
0.886,-2020.728637695,1.683222294,0
0.888,-2023.058715820,-0.503121376,0
0.890,-2020.375366211,1.695666790,0
0.892,-2023.694458008,-1.262672186,0
0.894,-2026.888427734,-3.466228485,0
0.896,-2022.415283203,0.783149719,0
0.898,-2020.743530273,1.909368157,0
0.900,-2019.322753906,2.590058088,0
0.902,-2017.380859375,3.524809361,0
0.904,-2017.918334961,2.323509455,0
0.906,-2018.191650391,1.594533205,0
0.908,-2018.322631836,1.138341427,0
0.910,-2020.905151367,-1.123254657,0
0.912,-2024.165039063,-3.409116030,0
0.914,-2024.261596680,-2.726532221,0
0.916,-2021.146240234,0.302393287,0
0.918,-2018.014282227,2.671105862,0
0.920,-2017.798950195,2.245028019,0
0.922,-2018.492431641,1.206754088,0
0.924,-2020.437500000,-0.574277103,0
0.926,-2018.824340820,0.807979167,0
0.928,-2017.302490234,1.812052727,0
0.930,-2021.265014648,-1.672487140,0
0.932,-2020.031982422,-0.341844141,0
0.934,-2018.115234375,1.224947453,0
0.936,-2022.967651367,-2.821374416,0
0.938,-2019.791870117,0.275644511,0
0.940,-2015.713378906,3.386492014,0
0.942,-2018.613769531,0.378117681,0
0.944,-2018.072265625,0.715207219,0
0.946,-2018.264160156,0.407042563,0
0.948,-2019.564941406,-0.695153117,0
0.950,-2020.661254883,-1.393274069,0
0.952,-2021.434204102,-1.684810042,0
0.954,-2021.846435547,-1.631045103,0
0.956,-2017.735961914,1.928439379,0
0.958,-2016.762817383,2.256760836,0
0.960,-2022.232910156,-2.499271870,0
0.962,-2017.847534180,1.467001319,0
0.964,-2013.026489258,4.890646935,0
0.966,-2017.773925781,0.111368343,0
0.968,-2016.312133789,1.223501205,0
0.970,-2015.585937500,1.516426921,0
0.972,-2013.075317383,3.132125616,0
0.974,-2008.612915039,5.906802177,0
0.976,-2012.161865234,1.833832264,0
0.978,-2017.206787109,-2.497490406,0
0.980,-2020.966674805,-4.866781235,0
0.982,-2015.004150391,0.852194726,0
0.984,-2012.563842773,2.560825825,0
0.986,-2017.687866211,-1.993515134,0
0.988,-2014.225341797,1.142490864,0
0.990,-2014.432983398,0.727074385,0
0.992,-2019.354003906,-3.261872530,0
0.994,-2016.141723633,-0.038537342,0
0.996,-2015.271484375,0.646796584,0
0.998,-2015.135986328,0.608499646,0
1.000,-2013.559814453,1.699192286,0
1.002,-2016.994018555,-1.349506497,0
1.004,-2017.649658203,-1.559552908,0
1.006,-2015.088623047,0.778936505,0
1.008,-2017.316040039,-1.126593947,0
1.010,-2016.461791992,-0.211772233,0
1.012,-2013.207153320,2.366648197,0
1.014,-2016.741821289,-0.908453822,0
1.016,-2014.151367188,1.308176517,0
1.018,-2011.893310547,2.773754835,0
1.020,-2017.217407227,-1.983636498,0
1.022,-2017.916381836,-2.086411238,0
1.024,-2016.862792969,-0.803349793,0
1.026,-2016.855346680,-0.619016767,0
1.028,-2018.131103516,-1.473658919,0
1.030,-2019.433349609,-2.158995152,0
1.032,-2019.077758789,-1.402620673,0
1.034,-2015.138183594,1.973121047,0
1.036,-2014.720947266,1.859167457,0
1.038,-2017.345092773,-0.594961405,0
1.040,-2010.176269531,5.112935066,0
1.042,-2011.824462891,2.694774866,0
1.044,-2018.505249023,-3.100264311,0
1.046,-2018.238647461,-2.203857899,0
1.048,-2015.411865234,0.484463930,0
1.050,-2014.096801758,1.399643660,0
1.052,-2013.787353516,1.329234123,0
1.054,-2014.049072266,0.830293357,0
1.056,-2009.858398438,3.905097723,0
1.058,-2011.415039063,1.826608658,0
1.060,-2013.570312500,-0.255621225,0
1.062,-2014.357055664,-0.810761213,0
1.064,-2011.497436523,1.593583465,0
1.066,-2008.695190430,3.418873787,0
1.068,-2014.642089844,-1.966168761,0
1.070,-2016.220092773,-2.756564856,0
1.072,-2014.248168945,-0.610272586,0
1.074,-2013.704345703,-0.051629420,0
1.076,-2017.966918945,-3.355453491,0
1.078,-2015.263549805,-0.507172167,0
1.080,-2011.130249023,2.820233583,0
1.082,-2013.686279297,0.205485657,0
1.084,-2016.937377930,-2.368748665,0
1.086,-2015.533203125,-0.750226557,0
1.088,-2012.958374023,1.419132233,0
1.090,-2015.193237305,-0.634419143,0
1.092,-2022.289916992,-6.013050079,0
1.094,-2019.078002930,-2.178609371,0
1.096,-2014.345825195,1.986044765,0
1.098,-2019.464477539,-2.436393499,0
1.100,-2019.317138672,-1.780356526,0
1.102,-2016.307861328,0.955756068,0
1.104,-2014.805786133,1.911677122,0
1.106,-2016.547485352,0.132234514,0
1.108,-2022.528076172,-4.548707485,0
1.110,-2020.298461914,-1.803680182,0
1.112,-2016.391967773,1.635479450,0
1.114,-2017.113281250,0.711026907,0
1.116,-2015.346801758,1.926849484,0
1.118,-2011.113525391,4.791182041,0
1.120,-2010.343872070,4.325039864,0
1.122,-2008.171752930,5.053288937,0
1.124,-2004.052734375,7.133879185,0
1.126,-1998.112304688,10.168802261,0
1.128,-1994.784423828,10.497340202,0
1.130,-1994.275756836,8.560079575,0
1.132,-1990.151000977,9.865861893,0
1.134,-1983.087890625,13.166829109,0
1.136,-1981.693359375,11.325322151,0
1.138,-1985.770385742,5.637452602,0
1.140,-1991.873046875,-0.361803114,0
1.142,-1992.088623047,-0.449040174,0
1.144,-1989.628540039,1.564099193,0
1.146,-1993.983642578,-2.170773983,0
1.148,-1995.465942383,-2.841192484,0
1.150,-1999.788574219,-5.571809292,0
1.152,-2003.324829102,-7.083961010,0
1.154,-1993.643432617,2.020248652,0
1.156,-1980.776733398,11.578572273,0
1.158,-1967.801391602,19.097265244,0
1.160,-1957.473510742,22.885879517,0
1.162,-1945.410522461,27.182144165,0
1.164,-1933.920166016,30.078180313,0
1.166,-1926.667724609,29.034515381,0
1.168,-1924.321777344,24.406787872,0
1.170,-1926.352539063,17.403320313,0
1.172,-1932.806884766,8.515715599,0
1.174,-1947.746948242,-4.996582031,0
1.176,-1963.996948242,-16.524927139,0
1.178,-1971.453247070,-18.651813507,0
1.180,-1976.394042969,-18.349548340,0
1.182,-1975.896972656,-13.885119438,0
1.184,-1970.643676758,-6.713519096,0
1.186,-1964.684814453,-0.586952686,0
1.188,-1967.814208984,-2.890495539,0
1.190,-1970.444824219,-4.294097424,0
1.192,-1968.348266602,-1.709216475,0
1.194,-1973.952148438,-5.687859058,0
1.196,-1979.406250000,-8.665886879,0
1.198,-1984.363159180,-10.595371246,0
1.200,-1990.628173828,-13.113433838,0
1.202,-1997.661132813,-15.669281006,0
1.204,-2003.892822266,-17.033815384,0
1.206,-2005.575805664,-14.557311058,0
1.208,-2003.770385742,-9.917998314,0
1.210,-2011.043823242,-13.370930672,0
1.212,-2013.323852539,-12.172886848,0
1.214,-2013.575683594,-9.663536072,0
1.216,-2015.281616211,-8.842818260,0
1.218,-2021.575195313,-11.772569656,0
1.220,-2024.145751953,-11.155615807,0
1.222,-2025.149902344,-9.457427979,0
1.224,-2027.095947266,-8.869278908,0
1.226,-2029.158325195,-8.502293587,0
1.228,-2025.125854492,-3.476499319,0
1.230,-2027.442016602,-4.505342007,0
1.232,-2028.797485352,-4.558316231,0
1.234,-2026.518676758,-1.772936344,0
1.236,-2029.108398438,-3.393113136,0
1.238,-2025.259765625,0.354266912,0
1.240,-2026.003417969,-0.302913189,0
1.242,-2030.336791992,-3.605904341,0
1.244,-2028.182373047,-1.128897429,0
1.246,-2025.767456055,1.000204563,0
1.248,-2029.295410156,-1.966005921,0
1.250,-2027.521118164,-0.149078161,0
1.252,-2025.349609375,1.572912931,0
1.254,-2024.811279297,1.642113566,0
1.256,-2022.120117188,3.370274782,0
1.258,-2024.423339844,0.829893589,0
1.260,-2023.641357422,1.253673673,0
1.262,-2022.358276367,1.972984314,0
1.264,-2021.840087891,1.937545896,0
1.266,-2020.377441406,2.644598007,0
1.268,-2019.947875977,2.390941858,0
1.270,-2021.778564453,0.435795695,0
1.272,-2030.743286133,-6.633568287,0
1.274,-2046.584106445,-17.479831696,0
1.276,-2071.062011719,-32.633296967,0
1.278,-2130.772705078,-71.822257996,0
1.280,-2227.679443359,-131.232040405,0
1.282,-2332.872558594,-183.883789063,0
1.284,-2433.561035156,-221.331115723,0
1.286,-2492.364990234,-217.879974365,0
1.288,-2483.619628906,-162.658157349,0
1.290,-2454.434570313,-103.810974121,0
1.292,-2448.618164063,-76.217117310,0
1.294,-2410.100585938,-29.321529388,0
1.296,-2279.480957031,78.786392212,0
1.298,-2148.259521484,163.337478638,0
1.300,-1945.971801758,284.371368408,0
1.302,-1582.648925781,503.755645752,0
1.304,-1178.180419922,706.387329102,0
1.306,-676.266967773,939.777343750,0
1.308,-51.436115265,1216.901733398,0
1.310,431.965423584,1322.440917969,0
1.312,622.331115723,1176.612060547,0
1.314,533.533203125,846.066711426,0
1.316,320.623748779,492.449249268,0
1.318,55.772071838,177.018020630,0
1.320,-346.057739258,-174.851333618,0
1.322,-690.743164063,-404.078887939,0
1.324,-870.985168457,-454.465942383,0
1.326,-1100.720703125,-532.149719238,0
1.328,-1424.326904297,-665.579345703,0
1.330,-1727.004272461,-753.078735352,0
1.332,-1958.037719727,-765.410705566,0
1.334,-2093.854980469,-700.945983887,0
1.336,-2135.703857422,-577.721862793,0
1.338,-2146.226318359,-457.517456055,0
1.340,-2147.382080078,-356.741058350,0
1.342,-2138.570556641,-270.608398438,0
1.344,-2128.232177734,-202.429534912,0
1.346,-2106.998779297,-140.928619385,0
1.348,-2099.047607422,-103.425567627,0
1.350,-2105.217529297,-85.239746094,0
1.352,-2098.609375000,-61.157184601,0
1.354,-2089.054687500,-40.134681702,0
1.356,-2073.453857422,-19.081718445,0
1.358,-2053.282470703,0.847623229,0
1.360,-2048.436523438,4.428250313,0
1.362,-2041.042724609,9.194783211,0
1.364,-2031.218994141,14.791943550,0
1.366,-2031.434814453,11.336854935,0
1.368,-2026.246215820,12.852976799,0
1.370,-2020.941894531,14.122131348,0
1.372,-2018.890625000,12.579189301,0
1.374,-2019.257324219,9.498412132,0
1.376,-2018.743896484,7.786917686,0
1.378,-2016.828125000,7.546437740,0
1.380,-2021.282592773,2.404804707,0
1.382,-2020.959472656,2.121764660,0
1.384,-2016.551879883,5.078320026,0
1.386,-2016.281005859,4.160360336,0
1.388,-2017.696899414,2.134616613,0
1.390,-2015.922363281,3.040363550,0
1.392,-2013.976318359,3.878291368,0
1.394,-2010.498168945,5.721617699,0
1.396,-2009.947875977,4.878053665,0
1.398,-2009.692382813,3.992731094,0
1.400,-2006.312011719,5.734514236,0
1.402,-2003.767578125,6.439178944,0
1.404,-2003.435546875,5.266405582,0
1.406,-2001.442260742,5.646378994,0
1.408,-2001.730590820,4.167285442,0
1.410,-2002.682373047,2.500865221,0
1.412,-1998.503540039,5.195304871,0
1.414,-1994.599609375,7.077061176,0
1.416,-1994.759521484,5.379954338,0
1.418,-1996.347290039,2.949444532,0
1.420,-1992.604492188,5.205008507,0
1.422,-1991.616943359,4.816394806,0
1.424,-1995.278198242,0.898387969,0
1.426,-1994.848999023,1.032570124,0
1.428,-1989.596801758,4.888089180,0
1.430,-1984.793334961,7.537797928,0
1.432,-1986.644775391,4.422654152,0
1.434,-1990.820068359,0.192347020,0
1.436,-1987.537841797,2.702427387,0
1.438,-1979.477294922,8.371152878,0
1.440,-1979.185424805,6.737760544,0
1.442,-1979.199340820,5.229585648,0
1.444,-1978.658081055,4.488398552,0
1.446,-1974.540161133,6.693715096,0
1.448,-1969.841186523,8.860868454,0
1.450,-1967.426513672,8.769749641,0
1.452,-1966.778808594,7.324581623,0
1.454,-1965.392089844,6.775348663,0
1.456,-1956.579711914,12.123620987,0
1.458,-1958.236328125,8.140960693,0
1.460,-1963.385131836,2.327193499,0
1.462,-1957.404296875,6.461673737,0
1.464,-1952.103515625,9.148488998,0
1.466,-1953.020507813,6.402199745,0
1.468,-1953.895019531,4.299209118,0
1.470,-1944.856933594,10.373364449,0
1.472,-1947.154541016,6.281023026,0
1.474,-1948.817260742,3.591956615,0
1.476,-1940.169311523,9.519820213,0
1.478,-1940.838256836,6.883989811,0
1.480,-1936.880004883,8.432690620,0
1.482,-1934.027587891,8.777164459,0
1.484,-1934.130737305,6.746428013,0
1.486,-1926.326416016,11.317100525,0
1.488,-1926.313720703,8.811958313,0
1.490,-1921.944580078,10.251847267,0
1.492,-1917.057373047,11.774609566,0
1.494,-1913.143676758,12.201890945,0
1.496,-1912.650024414,9.874122620,0
1.498,-1912.962646484,7.436670780,0
1.500,-1907.921752930,9.704610825,0
1.502,-1902.401611328,11.841338158,0
1.504,-1900.520385742,10.673004150,0
1.506,-1896.102539063,11.737138748,0
1.508,-1895.000000000,9.986263275,0
1.510,-1894.717529297,7.986757278,0
1.512,-1891.750122070,8.519747734,0
1.514,-1886.520019531,10.694231987,0
1.516,-1879.141723633,14.056182861,0
1.518,-1872.477905273,16.115320206,0
1.520,-1871.906494141,12.978445053,0
1.522,-1866.753051758,14.102389336,0
1.524,-1861.491699219,15.060522079,0
1.526,-1855.883544922,16.075443268,0
1.528,-1848.565673828,18.194519043,0
1.530,-1845.896606445,16.227020264,0
1.532,-1838.207153320,18.601490021,0
1.534,-1831.343505859,19.805990219,0
1.536,-1834.499877930,12.949484825,0
1.538,-1821.901245117,19.870538712,0
1.540,-1805.030029297,28.576541901,0
1.542,-1804.721069336,22.466224670,0
1.544,-1797.196166992,23.326116562,0
1.546,-1783.461791992,28.824453354,0
1.548,-1772.507202148,30.938821793,0
1.550,-1762.783569336,31.625904083,0
1.552,-1753.037231445,32.177989960,0
1.554,-1743.315429688,32.588371277,0
1.556,-1734.724243164,32.028060913,0
1.558,-1729.560913086,28.926301956,0
1.560,-1717.692993164,31.728420258,0
1.562,-1705.052612305,34.508621216,0
1.564,-1696.920776367,33.164340973,0
1.566,-1686.376953125,33.994873047,0
1.568,-1670.750366211,38.593959808,0
1.570,-1658.951660156,39.193775177,0
1.572,-1650.584838867,36.991123199,0
1.574,-1644.221191406,33.719905853,0
1.576,-1633.608276367,34.480648041,0
1.578,-1624.688720703,33.755290985,0
1.580,-1618.397583008,31.146778107,0
1.582,-1610.654907227,30.246936798,0
1.584,-1607.270629883,26.157331467,0
1.586,-1606.076171875,21.273305893,0
1.588,-1603.490234375,18.556917191,0
1.590,-1607.146606445,11.589176178,0
1.592,-1615.849121094,2.245152473,0
1.594,-1622.474487305,-3.406732082,0
1.596,-1630.044189453,-8.537175179,0
1.598,-1640.351196289,-14.656366348,0
1.600,-1649.398925781,-18.436265945,0
1.602,-1658.567138672,-21.469936371,0
1.604,-1673.587524414,-28.380981445,0
1.606,-1691.553466797,-36.047107697,0
1.608,-1703.523437500,-37.346096039,0
1.610,-1719.734497070,-41.655056000,0
1.612,-1734.694824219,-44.033634186,0
1.614,-1744.697998047,-42.028121948,0
1.616,-1756.503051758,-41.869674683,0
1.618,-1763.607543945,-38.090507507,0
1.620,-1781.224731445,-43.327648163,0
1.622,-1796.094238281,-45.263847351,0
1.624,-1803.253417969,-40.772994995,0
1.626,-1810.894653320,-37.654941559,0
1.628,-1826.920776367,-41.751396179,0
1.630,-1838.960083008,-41.836700439,0
1.632,-1841.886962891,-34.815635681,0
1.634,-1850.784057617,-33.998428345,0
1.636,-1861.374023438,-34.679386139,0
1.638,-1869.303466797,-33.139785767,0
1.640,-1874.902099609,-30.129489899,0
1.642,-1881.375732422,-28.468723297,0
1.644,-1891.001708984,-29.628797531,0
1.646,-1893.880737305,-25.283535004,0
1.648,-1898.252807617,-23.065172195,0
1.650,-1913.101440430,-29.488122940,0
1.652,-1914.339965820,-23.898199081,0
1.654,-1910.234863281,-15.394395828,0
1.656,-1922.837280273,-21.775020599,0
1.658,-1932.167236328,-24.192476273,0
1.660,-1930.558593750,-17.564977646,0
1.662,-1932.466552734,-15.145402908,0
1.664,-1937.340454102,-15.570343971,0
1.666,-1935.305664063,-10.527562141,0
1.668,-1943.812500000,-14.804375648,0
1.670,-1948.290649414,-14.997318268,0
1.672,-1948.019409180,-11.453460693,0
1.674,-1948.063354492,-8.942308426,0
1.676,-1948.924560547,-7.624822617,0
1.678,-1954.270996094,-10.088616371,0
1.680,-1956.193603516,-9.341969490,0
1.682,-1956.246826172,-7.307300091,0
1.684,-1956.947998047,-6.228722095,0
1.686,-1960.483154297,-7.593989372,0
1.688,-1965.238525391,-9.604983330,0
1.690,-1962.348876953,-5.222970009,0
1.692,-1962.935668945,-4.518575191,0
1.694,-1968.206420898,-7.613847733,0
1.696,-1968.585327148,-6.216545582,0
1.698,-1968.088134766,-4.448331833,0
1.700,-1969.505371094,-4.562032223,0
1.702,-1974.193725586,-7.194636345,0
1.704,-1971.757690430,-3.701052904,0
1.706,-1970.241088867,-1.698997855,0
1.708,-1979.292602539,-8.361430168,0
1.710,-1981.416870117,-8.155461311,0
1.712,-1971.751586914,1.174335122,0
1.714,-1980.782348633,-6.110476494,0
1.716,-1984.337524414,-7.517661095,0
1.718,-1976.874633789,-0.042635377,0
1.720,-1985.326538086,-6.606699944,0
1.722,-1985.851440430,-5.546717167,0
1.724,-1982.475952148,-1.688718200,0
1.726,-1986.800537109,-4.676984787,0
1.728,-1983.238037109,-0.866807103,0
1.730,-1984.930297852,-1.990342975,0
1.732,-1986.867797852,-3.054941893,0
1.734,-1983.210815430,0.468220294,0
1.736,-1980.758789063,2.271241665,0
1.738,-1981.198852539,1.424284816,0
1.740,-1987.172485352,-3.538374186,0
1.742,-1993.205932617,-7.444625378,0
1.744,-1990.279296875,-3.513941288,0
1.746,-1990.089843750,-2.585664034,0
1.748,-1991.614501953,-3.196878910,0
1.750,-1989.688842773,-0.988768518,0
1.752,-1991.754150391,-2.375303745,0
1.754,-1995.342285156,-4.638255119,0
1.756,-1989.740478516,0.749485314,0
1.758,-1993.002929688,-1.954536676,0
1.760,-1998.009399414,-5.414049149,0
1.762,-1992.474365234,0.094103001,0
1.764,-1993.172119141,-0.469458878,0
1.766,-1995.649658203,-2.292139530,0
1.768,-1994.078247070,-0.560563445,0
1.770,-1995.680419922,-1.682038426,0
1.772,-1994.373901367,-0.292055726,0
1.774,-1991.533569336,1.981963515,0
1.776,-1990.940795898,2.002522230,0
1.778,-1995.605590820,-2.070634842,0
1.780,-1992.460693359,0.835480034,0
1.782,-1991.007568359,1.780014157,0
1.784,-1991.321533203,1.140255570,0
1.786,-1991.925415039,0.417219996,0
1.788,-1997.174438477,-3.758030415,0
1.790,-1993.373535156,0.033279896,0
1.792,-1990.129028320,2.549406528,0
1.794,-1992.368652344,0.240953490,0
1.796,-1994.623291016,-1.566241026,0
1.798,-1992.640258789,0.324195772,0
1.800,-1992.356079102,0.473175913,0
1.802,-1995.898681641,-2.387263060,0
1.804,-1997.417114258,-3.037775755,0
1.806,-1991.528442383,2.217370987,0
1.808,-1989.287109375,3.467838764,0
1.810,-1991.500854492,0.975417793,0
1.812,-1994.277709961,-1.401143909,0
1.814,-1992.838378906,0.029693160,0
1.816,-1989.543457031,2.585807800,0
1.818,-1995.103271484,-2.313135386,0
1.820,-1997.094360352,-3.347651005,0
1.822,-1991.179077148,1.996994019,0
1.824,-1988.282470703,3.806137562,0
1.826,-1990.815429688,0.990210116,0
1.828,-1993.655639648,-1.438910127,0
1.830,-1992.582153320,-0.284174144,0
1.832,-1990.328613281,1.531718612,0
1.834,-1991.047729492,0.632024527,0
1.836,-1993.224731445,-1.201614738,0
1.838,-1991.741577148,0.218972594,0
1.840,-1986.795043945,4.017496109,0
1.842,-1989.914916992,0.698170364,0
1.844,-1992.761718750,-1.671150088,0
1.846,-1989.943969727,0.891799092,0
1.848,-1993.857299805,-2.350051641,0
1.850,-1992.064819336,-0.433649391,0
1.852,-1985.520996094,4.752253056,0
1.854,-1987.997192383,1.770320535,0
1.856,-1989.141235352,0.487064511,0
1.858,-1986.786254883,2.210410595,0
1.860,-1990.095214844,-0.854403853,0
1.862,-1989.455688477,-0.167140365,0
1.864,-1988.461425781,0.643321037,0
1.866,-1992.972534180,-3.008246899,0
1.868,-1990.996215820,-0.802546203,0
1.870,-1986.292480469,3.034186125,0
1.872,-1988.685180664,0.498889863,0
1.874,-1986.096679688,2.401271820,0
1.876,-1988.917236328,-0.326049715,0
1.878,-1990.662231445,-1.610778093,0
1.880,-1988.160156250,0.693233669,0
1.882,-1989.106933594,-0.197191119,0
1.884,-1987.849365234,0.824683666,0
1.886,-1993.158569336,-3.487934828,0
1.888,-1990.832275391,-0.903424799,0
1.890,-1983.928100586,4.667160511,0
1.892,-1989.680541992,-0.844131410,0
1.894,-1988.218994141,0.480219156,0
1.896,-1984.972045898,2.898899555,0
1.898,-1987.645507813,0.175298139,0
1.900,-1985.619873047,1.711860895,0
1.902,-1984.582397461,2.138316393,0
1.904,-1983.297607422,2.662345409,0
1.906,-1980.872802734,3.956654310,0
1.908,-1986.984130859,-1.675846457,0
1.910,-1990.573852539,-4.095398426,0
1.912,-1989.758300781,-2.550955296,0
1.914,-1986.731323242,0.370257288,0
1.916,-1986.280517578,0.638579071,0
1.918,-1982.525634766,3.417106867,0
1.920,-1979.148437500,5.284430504,0
1.922,-1982.246826172,1.700219393,0
1.924,-1979.958740234,3.101941347,0
1.926,-1979.985839844,2.391486883,0
1.928,-1981.822143555,0.431845397,0
1.930,-1979.711669922,1.977370977,0
1.932,-1981.370117188,0.248029813,0
1.934,-1983.495239258,-1.459925294,0
1.936,-1981.169555664,0.673336506,0
1.938,-1979.628906250,1.721992373,0
1.940,-1982.074218750,-0.562572300,0
1.942,-1985.433593750,-3.050364494,0
1.944,-1986.978881836,-3.574387550,0
1.946,-1985.544067383,-1.664135337,0
1.948,-1982.178833008,1.323049664,0
1.950,-1986.317993164,-2.190262794,0
1.952,-1987.442626953,-2.578153133,0
1.954,-1981.148925781,2.889811277,0
1.956,-1980.381103516,2.844749451,0
1.958,-1984.027832031,-0.623741806,0
1.960,-1984.120117188,-0.556864619,0
1.962,-1982.539428711,0.796292365,0
1.964,-1982.011718750,1.029747844,0
1.966,-1985.454345703,-1.876625180,0
1.968,-1985.205932617,-1.266439795,0
1.970,-1983.242065430,0.542493522,0
1.972,-1986.462768555,-2.083083630,0
1.974,-1983.927368164,0.351826936,0
1.976,-1978.351684570,4.610218525,0
1.978,-1983.877685547,-0.712273419,0
1.980,-1985.258666992,-1.628046513,0
1.982,-1982.223999023,1.093999147,0
1.984,-1980.580200195,2.129383802,0
1.986,-1979.726928711,2.319860697,0
1.988,-1984.058471680,-1.564652920,0
1.990,-1987.987548828,-4.272820473,0
1.992,-1982.795654297,0.714756966,0
1.994,-1981.505981445,1.558988571,0
1.996,-1982.385864258,0.528211355,0
1.998,-1978.074584961,3.763961554,0
2.000,-1981.120239258,0.558684528,0
2.002,-1984.831542969,-2.451994896,0
2.004,-1983.694458008,-1.022701263,0
2.006,-1983.048217773,-0.292762578,0
2.008,-1980.677368164,1.616280317,0
2.010,-1981.765747070,0.410535365,0
2.012,-1986.206176758,-3.134323359,0
2.014,-1982.596069336,0.370088398,0
2.016,-1975.873779297,5.516213894,0
2.018,-1972.906494141,6.598196507,0
2.020,-1974.125732422,4.183587551,0
2.022,-1976.604736328,1.325720668,0
2.024,-1981.216064453,-2.555355787,0
2.026,-1981.650024414,-2.324999809,0
2.028,-1981.731201172,-1.871512890,0
2.030,-1985.560058594,-4.433526516,0
2.032,-1982.125488281,-0.776951611,0
2.034,-1979.772094727,1.226069450,0
2.036,-1982.441040039,-1.122215629,0
2.038,-1978.727294922,2.015644789,0
2.040,-1980.263305664,0.373075128,0
2.042,-1983.822387695,-2.477979660,0
2.044,-1982.055541992,-0.553127587,0
2.046,-1977.670776367,2.980149269,0
2.048,-1977.924682617,2.120313644,0
2.050,-1980.892944336,-0.659502685,0
2.052,-1981.285034180,-0.817850053,0
2.054,-1978.186401367,1.773897052,0
2.056,-1973.919433594,4.698407650,0
2.058,-1977.178100586,1.119807720,0
2.060,-1981.009155273,-2.108782768,0
2.062,-1978.322387695,0.449546427,0
2.064,-1980.232299805,-1.135833263,0
2.066,-1978.940063477,0.121642485,0
2.068,-1974.065551758,3.885854244,0
2.070,-1974.728393555,2.506817818,0
2.072,-1978.373657227,-0.885527670,0
2.074,-1978.661621094,-0.912688494,0
2.076,-1978.137573242,-0.302231312,0
2.078,-1976.504028320,1.035413146,0
2.080,-1981.910400391,-3.399589539,0
2.082,-1979.764282227,-0.974883437,0
2.084,-1977.276611328,1.176584363,0
2.086,-1977.836425781,0.479691029,0
2.088,-1974.310546875,3.115432739,0
2.090,-1972.474121094,3.851401091,0
2.092,-1979.687988281,-2.615195990,0
2.094,-1978.817993164,-1.357415795,0
2.096,-1977.059570313,0.311926752,0
2.098,-1979.484252930,-1.643242836,0
2.100,-1976.430664063,1.096935868,0
2.102,-1974.987548828,1.975581288,0
2.104,-1975.373901367,1.236003280,0
2.106,-1974.696166992,1.488470793,0
2.108,-1973.015991211,2.464430571,0
2.110,-1969.785888672,4.429069996,0
2.112,-1975.438476563,-0.951649010,0
2.114,-1980.636840820,-4.783295631,0
2.116,-1975.814697266,0.030223941,0
2.118,-1972.369384766,2.703175306,0
2.120,-1974.237426758,0.649546742,0
2.122,-1974.453735352,0.336917609,0
2.124,-1972.562500000,1.733070374,0
2.126,-1973.114624023,0.918417513,0
2.128,-1975.810913086,-1.382749915,0
2.130,-1970.451904297,3.092598677,0
2.132,-1966.742553711,5.290323257,0
2.134,-1975.554321289,-2.738813639,0
2.136,-1968.763183594,3.151781321,0
2.138,-1956.969604492,11.623999596,0
2.140,-1961.275024414,5.692170620,0
2.142,-1957.538940430,7.332969666,0
2.144,-1952.033813477,9.985051155,0
2.146,-1958.009277344,3.118502617,0
2.148,-1953.635620117,5.827152729,0
2.150,-1948.252685547,8.718845367,0
2.152,-1951.278564453,4.427851200,0
2.154,-1949.232421875,5.035254478,0
2.156,-1948.885986328,4.185744762,0
2.158,-1952.223632813,0.659617543,0
2.160,-1952.301269531,0.452611446,0
2.162,-1951.216552734,1.195656657,0
2.164,-1956.319335938,-3.038800001,0
2.166,-1965.466186523,-9.477637291,0
2.168,-1962.423950195,-5.005220890,0
2.170,-1950.408203125,5.452582359,0
2.172,-1938.920654297,13.175431252,0
2.174,-1918.300903320,26.284824371,0
2.176,-1909.213256836,27.511543274,0
2.178,-1904.347900391,25.181695938,0
2.180,-1886.401123047,33.543941498,0
2.182,-1880.060546875,31.020891190,0
2.184,-1882.287597656,22.394931793,0
2.186,-1884.288208008,15.862052917,0
2.188,-1894.844848633,4.126399517,0
2.190,-1913.349365234,-11.182810783,0
2.192,-1921.138916016,-14.756094933,0
2.194,-1926.007934570,-15.263801575,0
2.196,-1931.727294922,-16.320045471,0
2.198,-1924.155029297,-6.803729534,0
2.200,-1921.249389648,-3.031832933,0
2.202,-1929.123901367,-8.482548714,0
2.204,-1927.908203125,-5.651958942,0
2.206,-1927.987182617,-4.457334518,0
2.208,-1929.876342773,-4.936110973,0
2.210,-1929.308349609,-3.397369385,0
2.212,-1936.735351563,-8.418865204,0
2.214,-1940.586425781,-9.543103218,0
2.216,-1945.095092773,-10.929013252,0
2.218,-1957.688720703,-18.295194626,0
2.220,-1968.298339844,-22.481203079,0
2.222,-1970.797729492,-19.429157257,0
2.224,-1967.887084961,-12.847535133,0
2.226,-1971.884521484,-13.101431847,0
2.228,-1982.108032227,-18.141412735,0
2.230,-1985.339111328,-16.622856140,0
2.232,-1979.369750977,-8.285926819,0
2.234,-1981.426025391,-8.043843269,0
2.236,-1983.529418945,-7.892179489,0
2.238,-1985.505615234,-7.675265312,0
2.240,-1985.701904297,-6.122321129,0
2.242,-1982.962036133,-2.630746126,0
2.244,-1981.409790039,-0.838802516,0
2.246,-1977.139282227,2.669043541,0
2.248,-1975.521118164,3.334524632,0
2.250,-1982.778320313,-3.050957203,0
2.252,-1989.706787109,-7.761664867,0
2.254,-1988.109375000,-4.794358253,0
2.256,-1985.947998047,-2.047847986,0
2.258,-1988.425415039,-3.519638062,0
2.260,-1985.625488281,-0.559735119,0
2.262,-1985.331542969,-0.206763670,0
2.264,-1988.708374023,-2.787195921,0
2.266,-1986.955444336,-0.804423690,0
2.268,-1980.701049805,4.238863468,0
2.270,-1984.029907227,0.707720280,0
2.272,-1984.139160156,0.465472519,0
2.274,-1986.753417969,-1.671241760,0
2.276,-1994.042724609,-6.969226360,0
2.278,-1989.479614258,-1.871388197,0
2.280,-1986.243652344,1.061325312,0
2.282,-1986.901123047,0.314119905,0
2.284,-1985.968750000,0.969438970,0
2.286,-1986.560424805,0.293854147,0
2.288,-1996.460571289,-7.471484661,0
2.290,-2016.757080078,-21.597034454,0
2.292,-2043.577270508,-37.657409668,0
2.294,-2112.289550781,-82.730857849,0
2.296,-2214.498779297,-143.840484619,0
2.298,-2317.157714844,-191.719207764,0
2.300,-2409.421142578,-220.872604370,0
2.302,-2459.175781250,-210.485000610,0
2.304,-2442.415771484,-150.673049927,0
2.306,-2415.297607422,-96.096961975,0
2.308,-2425.474853516,-82.656814575,0
2.310,-2375.208496094,-25.192136765,0
2.312,-2244.939208984,81.725555420,0
2.314,-2119.890869141,160.822113037,0
2.316,-1891.785278320,302.495361328,0
2.318,-1524.826660156,520.679626465,0
2.320,-1119.782348633,719.998229980,0
2.322,-586.064147949,975.100097656,0
2.324,31.827161789,1238.977172852,0
2.326,483.836395264,1315.194580078,0
2.328,626.944702148,1134.220947266,0
2.330,480.386383057,768.171997070,0
2.332,258.009735107,424.502014160,0
2.334,-1.873704910,128.034988403,0
2.336,-362.387725830,-180.814666748,0
2.338,-629.692504883,-348.532806396,0
2.340,-797.351318359,-401.477172852,0
2.342,-1062.808471680,-518.719970703,0
2.344,-1403.934570313,-668.760498047,0
2.346,-1696.093383789,-747.371948242,0
2.348,-1914.655151367,-751.272033691,0
2.350,-2041.444824219,-682.928039551,0
2.352,-2078.908203125,-560.297180176,0
2.354,-2093.068115234,-446.794158936,0
2.356,-2092.300048828,-346.904602051,0
2.358,-2085.856689453,-264.799896240,0
2.360,-2074.039306641,-196.761459351,0
2.362,-2053.807617188,-137.299118042,0
2.364,-2060.534912109,-112.019142151,0
2.366,-2069.547851563,-94.134887695,0
2.368,-2065.214599609,-69.844841003,0
2.370,-2054.229248047,-45.778964996,0
2.372,-2043.549926758,-27.299402237,0
2.374,-2027.443237305,-8.705297470,0
2.376,-2011.018554688,6.003867626,0
2.378,-2007.489013672,7.414793968,0
2.380,-1997.247558594,13.732409477,0
2.382,-1997.479370117,10.500417709,0
2.384,-1999.083496094,6.919175148,0
2.386,-1991.561645508,11.231772423,0
2.388,-1992.840698242,7.740921021,0
2.390,-1994.761108398,4.527014256,0
2.392,-1991.205810547,6.286160469,0
2.394,-1994.227416992,2.539060831,0
2.396,-1995.990478516,0.603503525,0
2.398,-1994.517578125,1.614974141,0
2.400,-1996.260375977,-0.099402525,0
2.402,-1990.156372070,4.670218945,0
2.404,-1981.450683594,10.403298378,0
2.406,-1988.886718750,2.307866573,0
2.408,-1993.045288086,-1.439369678,0
2.410,-1981.700317383,7.704231262,0
2.412,-1981.065429688,6.485922813,0
2.414,-1987.077880859,0.368207574,0
2.416,-1981.278198242,4.797142506,0
2.418,-1980.406005859,4.409474850,0
2.420,-1984.614990234,0.155882671,0
2.422,-1982.964355469,1.405055046,0
2.424,-1980.360961914,3.117726326,0
2.426,-1981.573242188,1.481912017,0
2.428,-1983.218505859,-0.127011135,0
2.430,-1979.325073242,2.929399967,0
2.432,-1978.502441406,2.918226719,0
2.434,-1977.338867188,3.174694777,0
2.436,-1973.415527344,5.520605564,0
2.438,-1975.034179688,3.034857512,0
2.440,-1973.550903320,3.513984919,0
2.442,-1969.419921875,5.946029663,0
2.444,-1971.216796875,3.227102518,0
2.446,-1969.782836914,3.625245571,0
2.448,-1969.488769531,3.048233032,0
2.450,-1972.300659180,0.183831602,0
2.452,-1972.166015625,0.247697175,0
2.454,-1967.181884766,4.069208145,0
2.456,-1964.688964844,5.103756905,0
2.458,-1966.606933594,2.477866888,0
2.460,-1970.446411133,-1.059053898,0
2.462,-1968.288696289,0.854519665,0
2.464,-1965.814453125,2.588966846,0
2.466,-1965.664184570,2.130508900,0
2.468,-1965.853881836,1.509506106,0
2.470,-1963.176757813,3.256244898,0
2.472,-1957.788696289,6.723274231,0
2.474,-1964.247070313,0.206004903,0
2.476,-1964.931518555,-0.372095406,0
2.478,-1959.595581055,3.860681772,0
2.480,-1959.222778320,3.292679310,0
2.482,-1953.720092773,6.840732098,0
2.484,-1950.513793945,7.814293861,0
2.486,-1950.942626953,5.744161606,0
2.488,-1946.401733398,7.999329567,0
2.490,-1941.656860352,9.912074089,0
2.492,-1944.945800781,5.151265144,0
2.494,-1943.323974609,5.267884731,0
2.496,-1942.567993164,4.685133934,0
2.498,-1940.020141602,5.625617504,0
2.500,-1931.613769531,10.913617134,0
2.502,-1934.548217773,6.205982208,0
2.504,-1934.984497070,4.487490177,0
2.506,-1925.067749023,11.203093529,0
2.508,-1929.521606445,5.249331951,0
2.510,-1928.655761719,4.756181717,0
2.512,-1920.348632813,10.160273552,0
2.514,-1920.687500000,7.638786316,0
2.516,-1913.190307617,11.772224426,0
2.518,-1910.999633789,10.859922409,0
2.520,-1916.230712891,4.377895355,0
2.522,-1912.145141602,6.582655430,0
2.524,-1908.168945313,8.212276459,0
2.526,-1907.958374023,6.551030159,0
2.528,-1905.026977539,7.375143051,0
2.530,-1899.543334961,10.001183510,0
2.532,-1893.545043945,12.443794250,0
2.534,-1894.758911133,8.734299660,0
2.536,-1892.290283203,8.713301659,0
2.538,-1884.782836914,12.615928650,0
2.540,-1884.334106445,10.161306381,0
2.542,-1880.163208008,11.147144318,0
2.544,-1875.006347656,12.680699348,0
2.546,-1870.072387695,13.700074196,0
2.548,-1859.643920898,18.766471863,0
2.550,-1851.778076172,20.713699341,0
2.552,-1853.209106445,14.997478485,0
2.554,-1850.883666992,13.473227501,0
2.556,-1839.326660156,19.467700958,0
2.558,-1835.996093750,17.731727600,0
2.560,-1833.184814453,15.977655411,0
2.562,-1823.041503906,20.316082001,0
2.564,-1816.073364258,21.220792770,0
2.566,-1804.482666016,25.519685745,0
2.568,-1798.281494141,24.671466827,0
2.570,-1794.027343750,22.497402191,0
2.572,-1778.858154297,29.295845032,0
2.574,-1772.255737305,27.920555115,0
2.576,-1764.919921875,27.421205521,0
2.578,-1750.734619141,32.360279083,0
2.580,-1743.086791992,31.117010117,0
2.582,-1728.363159180,35.653305054,0
2.584,-1714.210449219,38.737564087,0
2.586,-1713.751708984,30.485578537,0
2.588,-1702.453125000,32.498413086,0
2.590,-1688.692382813,35.978847504,0
2.592,-1683.317626953,32.163486481,0
2.594,-1669.640869141,35.653026581,0
2.596,-1663.050170898,32.855884552,0
2.598,-1663.277587891,25.377365112,0
2.600,-1649.905151367,30.138313293,0
2.602,-1645.354248047,26.980176926,0
2.604,-1644.992065430,21.265943527,0
2.606,-1642.831298828,18.220605850,0
2.608,-1643.575561523,13.592463493,0
2.610,-1645.637817383,8.967845917,0
2.612,-1650.818237305,2.945752382,0
2.614,-1652.118896484,1.279527068,0
2.616,-1661.027587891,-5.933722496,0
2.618,-1670.216430664,-11.761861801,0
2.620,-1676.210693359,-13.810102463,0
2.622,-1685.746826172,-18.158029556,0
2.624,-1693.524169922,-20.171688080,0
2.626,-1709.789184570,-28.339248657,0
2.628,-1723.944580078,-33.050994873,0
2.630,-1731.876098633,-31.874816895,0
2.632,-1747.719360352,-37.113632202,0
2.634,-1762.220581055,-40.144382477,0
2.636,-1767.975830078,-35.699199677,0
2.638,-1772.876220703,-31.577074051,0
2.640,-1787.856323242,-36.210685730,0
2.642,-1800.314331055,-37.852947235,0
2.644,-1805.104980469,-33.166786194,0
2.646,-1816.026000977,-34.290081024,0
2.648,-1824.630737305,-33.362167358,0
2.650,-1831.769897461,-31.500619888,0
2.652,-1838.382324219,-29.643095016,0
2.654,-1843.260986328,-26.849880219,0
2.656,-1852.534301758,-28.095468521,0
2.658,-1864.422241211,-31.097866058,0
2.660,-1872.645874023,-30.582977295,0
2.662,-1879.497924805,-29.115713120,0
2.664,-1883.631835938,-25.860509872,0
2.666,-1881.412475586,-18.387348175,0
2.668,-1885.065063477,-17.141899109,0
2.670,-1896.124023438,-21.933755875,0
2.672,-1898.397338867,-18.827447891,0
2.674,-1904.057250977,-19.045461655,0
2.676,-1911.447998047,-20.561286926,0
2.678,-1909.000976563,-14.088610649,0
2.680,-1909.711181641,-11.510051727,0
2.682,-1919.070434570,-16.231458664,0
2.684,-1921.979736328,-14.887115479,0
2.686,-1921.105712891,-10.898950577,0
2.688,-1921.792968750,-9.011326790,0
2.690,-1921.797973633,-7.012592793,0
2.692,-1924.339843750,-7.431179047,0
2.694,-1928.975830078,-9.385450363,0
2.696,-1929.174072266,-7.453940868,0
2.698,-1931.966796875,-7.969452858,0
2.700,-1934.161987305,-7.905756950,0
2.702,-1941.399047852,-11.777567863,0
2.704,-1943.891601563,-11.098921776,0
2.706,-1938.662475586,-4.565306187,0
2.708,-1941.706298828,-5.918153286,0
2.710,-1945.210571289,-7.328415871,0
2.712,-1941.803588867,-3.049968481,0
2.714,-1944.042602539,-4.113635063,0
2.716,-1945.262939453,-4.148532391,0
2.718,-1945.066772461,-3.074063778,0
2.720,-1953.481689453,-8.935709953,0
2.722,-1955.654785156,-8.640100479,0
2.724,-1953.739624023,-5.230405807,0
2.726,-1955.907348633,-5.754097939,0
2.728,-1952.140258789,-1.545405269,0
2.730,-1955.036254883,-3.454329729,0
2.732,-1961.828125000,-7.969181538,0
2.734,-1961.406860352,-5.870558262,0
2.736,-1959.997192383,-3.469515800,0
2.738,-1962.274658203,-4.469859600,0
2.740,-1963.679687500,-4.569265366,0
2.742,-1965.190917969,-4.729249477,0
2.744,-1965.432495117,-3.866114140,0
2.746,-1965.050903320,-2.710130215,0
2.748,-1967.302246094,-3.858887196,0
2.750,-1965.804077148,-1.836074233,0
2.752,-1971.319091797,-5.717440605,0
2.754,-1968.886230469,-2.554646015,0
2.756,-1970.025146484,-2.872697830,0
2.758,-1974.161132813,-5.451222420,0
2.760,-1969.847656250,-0.884892941,0
2.762,-1974.751220703,-4.502044201,0
2.764,-1975.791259766,-4.310491085,0
2.766,-1974.930908203,-2.683317184,0
2.768,-1973.899536133,-1.284847021,0
2.770,-1973.246826172,-0.491670132,0
2.772,-1978.775756836,-4.682645798,0
2.774,-1977.016479492,-2.273663044,0
2.776,-1972.751098633,1.549057841,0
2.778,-1978.822387695,-3.517212152,0
2.780,-1977.892578125,-2.012399912,0
2.782,-1976.589111328,-0.551403761,0
2.784,-1977.128906250,-0.848716557,0
2.786,-1974.433349609,1.436389565,0
2.788,-1974.079101563,1.392703176,0
2.790,-1975.651000977,-0.139358401,0
2.792,-1979.310180664,-2.954325914,0
2.794,-1977.809082031,-1.130315185,0
2.796,-1976.614379883,0.050037980,0
2.798,-1978.589477539,-1.497214556,0
2.800,-1974.930419922,1.681405783,0
2.802,-1970.441040039,4.799454689,0
2.804,-1970.757446289,3.486811399,0
2.806,-1972.558593750,1.311007261,0
2.808,-1973.139160156,0.568120778,0
2.810,-1971.665283203,1.588171840,0
2.812,-1972.969604492,0.220766738,0
2.814,-1972.350708008,0.653056860,0
2.816,-1971.222167969,1.385709524,0
2.818,-1971.556152344,0.818020403,0
2.820,-1972.217285156,0.121954255,0
2.822,-1969.979125977,1.835653424,0
2.824,-1964.047485352,6.041194916,0
2.826,-1967.827148438,1.758948207,0
2.828,-1975.386840820,-4.511636734,0
2.830,-1966.984985352,3.025604963,0
2.832,-1965.535400391,3.480709553,0
2.834,-1973.564208984,-3.537385464,0
2.836,-1971.268554688,-0.965813696,0
2.838,-1970.336914063,-0.026525939,0
2.840,-1972.690185547,-1.850933790,0
2.842,-1969.462524414,1.070754528,0
2.844,-1969.975219727,0.434025884,0
2.846,-1971.469848633,-0.824844718,0
2.848,-1968.627807617,1.568840623,0
2.850,-1969.781982422,0.322570145,0
2.852,-1970.044799805,0.046424896,0
2.854,-1966.772583008,2.581165791,0
2.856,-1965.741699219,2.809373140,0
2.858,-1967.809326172,0.576823175,0
2.860,-1972.108032227,-2.894683123,0
2.862,-1971.443481445,-1.734595537,0
2.864,-1969.729980469,-0.016349725,0
2.866,-1970.272460938,-0.434676588,0
2.868,-1969.921264648,-0.064950421,0
2.870,-1967.789672852,1.607410192,0
2.872,-1973.512084961,-3.200501680,0
2.874,-1976.928833008,-5.146676540,0
2.876,-1968.594360352,2.479382038,0
2.878,-1966.822875977,3.306127787,0
2.880,-1970.129028320,0.000006374,0
2.882,-1963.657470703,5.033408642,0
2.884,-1962.652221680,4.696679115,0
2.886,-1968.459106445,-0.863533854,0
2.888,-1964.575439453,2.349012375,0
2.890,-1963.081054688,2.989201784,0
2.892,-1967.736206055,-1.295658231,0
2.894,-1964.521728516,1.492380619,0
2.896,-1962.650756836,2.615920067,0
2.898,-1965.756958008,-0.381375641,0
2.900,-1968.150756836,-2.158462286,0
2.902,-1964.067749023,1.496845603,0
2.904,-1960.831787109,3.681106567,0
2.906,-1961.895996094,2.035303593,0
2.908,-1962.778930664,0.896267354,0
2.910,-1961.351806641,1.807064176,0
2.912,-1960.147338867,2.342300892,0
2.914,-1965.467407227,-2.316052914,0
2.916,-1966.459960938,-2.573336840,0
2.918,-1961.840454102,1.591505766,0
2.920,-1959.633789063,2.954049110,0
2.922,-1957.981323242,3.582801819,0
2.924,-1963.306884766,-1.355431676,0
2.926,-1963.951782227,-1.555855632,0
2.928,-1961.142333984,0.974996388,0
2.930,-1961.358276367,0.590362489,0
2.932,-1962.476684570,-0.410666823,0
2.934,-1959.736694336,1.811671257,0
2.936,-1957.451293945,3.186578274,0
2.938,-1962.093383789,-1.132001758,0
2.940,-1959.829101563,0.880608320,0
2.942,-1956.772338867,3.062345982,0
2.944,-1962.135131836,-1.789205313,0
2.946,-1959.795288086,0.428320885,0
2.948,-1959.039916992,0.920613706,0
2.950,-1960.045776367,-0.066346817,0
2.952,-1959.482543945,0.386487395,0
2.954,-1959.703125000,0.129027158,0
2.956,-1956.486450195,2.602153540,0
2.958,-1957.283447266,1.404048204,0
2.960,-1960.103759766,-1.101536393,0
2.962,-1957.853759766,0.893206596,0
2.964,-1957.357299805,1.080866218,0
2.966,-1957.690551758,0.581416190,0
2.968,-1957.242553711,0.800642490,0
2.970,-1961.214355469,-2.466363907,0
2.972,-1964.301269531,-4.319164753,0
2.974,-1959.003540039,0.761040986,0
2.976,-1954.871215820,3.805925369,0
2.978,-1955.205932617,2.699791908,0
2.980,-1956.950561523,0.742883682,0
2.982,-1955.628417969,1.606156826,0
2.984,-1952.507568359,3.676546335,0
2.986,-1953.719848633,1.916617393,0
2.988,-1956.544921875,-0.706577599,0
2.990,-1956.811401367,-0.756862283,0
2.992,-1955.847045898,0.161445886,0
2.994,-1960.167968750,-3.235106230,0
2.996,-1956.635375977,0.231316745,0
2.998,-1947.856567383,7.007766724,0
3.000,-1952.886596680,1.538275838,0
3.002,-1957.256103516,-2.202024460,0
3.004,-1955.079711914,-0.019951627,0
3.006,-1953.485595703,1.224299908,0
3.008,-1949.362548828,4.159022808,0
3.010,-1949.292480469,3.289279222,0
3.012,-1954.145996094,-1.216652870,0
3.014,-1952.582031250,0.270098329,0
3.016,-1949.724121094,2.432893038,0
3.018,-1949.148925781,2.339632511,0
3.020,-1953.225952148,-1.351361513,0
3.022,-1955.485351563,-2.808315754,0
3.024,-1957.155517578,-3.483238459,0
3.026,-1957.412353516,-2.908847332,0
3.028,-1960.553222656,-4.705265045,0
3.030,-1959.227416992,-2.628471136,0
3.032,-1955.114257813,1.154711366,0
3.034,-1957.072265625,-0.624776423,0
3.036,-1958.204101563,-1.366199970,0
3.038,-1955.395385742,1.121890664,0
3.040,-1953.648559570,2.231268406,0
3.042,-1953.494873047,1.854875207,0
3.044,-1953.267211914,1.619727492,0
3.046,-1956.305175781,-1.102989197,0
3.048,-1955.604858398,-0.313218027,0
3.050,-1953.397094727,1.473563671,0
3.052,-1958.103881836,-2.514779568,0
3.054,-1957.066772461,-1.149246335,0
3.056,-1951.022705078,3.806989670,0
3.058,-1955.487670898,-0.511713147,0
3.060,-1956.623046875,-1.281017065,0
3.062,-1954.170776367,0.910942733,0
3.064,-1956.968994141,-1.467909336,0
3.066,-1956.973144531,-1.144886732,0
3.068,-1952.116943359,2.886508703,0
3.070,-1953.770263672,0.959147871,0
3.072,-1956.209716797,-1.151265264,0
3.074,-1956.499633789,-1.120961070,0
3.076,-1954.738525391,0.497909814,0
3.078,-1949.711181641,4.297383785,0
3.080,-1955.156860352,-0.893181860,0
3.082,-1957.708129883,-2.678976297,0
3.084,-1956.171386719,-0.888374150,0
3.086,-1958.360961914,-2.393868685,0
3.088,-1955.045043945,0.717065275,0
3.090,-1953.824096680,1.507326961,0
3.092,-1957.092163086,-1.369440198,0
3.094,-1962.000000000,-4.882285118,0
3.096,-1956.021362305,0.852781892,0
3.098,-1953.759765625,2.422272921,0
3.100,-1955.825561523,0.277251065,0
3.102,-1952.052734375,3.150019407,0
3.104,-1953.367431641,1.427448988,0
3.106,-1959.224731445,-3.445441246,0
3.108,-1958.113281250,-1.815305471,0
3.110,-1955.776611328,0.405536383,0
3.112,-1958.136962891,-1.520412803,0
3.114,-1959.204467773,-2.012828588,0
3.116,-1959.160644531,-1.531407833,0
3.118,-1955.993286133,1.272401333,0
3.120,-1955.790893555,1.147036314,0
3.122,-1954.448364258,1.936308861,0
3.124,-1957.267089844,-0.686348259,0
3.126,-1960.215576172,-2.827018738,0
3.128,-1957.716552734,-0.255065650,0
3.130,-1957.524536133,-0.049055409,0
3.132,-1952.493286133,3.874975681,0
3.134,-1955.494140625,0.679904997,0
3.136,-1959.528076172,-2.608689547,0
3.138,-1954.252563477,2.074165583,0
3.140,-1955.555419922,0.599910796,0
3.142,-1962.162841797,-4.672484875,0
3.144,-1961.442626953,-3.073939085,0
3.146,-1952.746704102,4.372642994,0
3.148,-1957.639770508,-0.404809237,0
3.150,-1961.347656250,-3.198690891,0
3.152,-1955.552978516,2.019073963,0
3.154,-1952.873046875,3.654733419,0
3.156,-1955.196533203,1.035399795,0
3.158,-1960.346191406,-3.199967861,0
3.160,-1958.608032227,-1.136896849,0
3.162,-1949.148315430,6.473190784,0
3.164,-1944.850219727,8.377510071,0
3.166,-1945.954101563,5.657193661,0
3.168,-1943.831176758,6.051176548,0
3.170,-1940.353759766,7.411032200,0
3.172,-1943.802856445,3.081442118,0
3.174,-1940.977172852,4.594389439,0
3.176,-1937.904052734,5.963567734,0
3.178,-1939.159790039,3.661572933,0
3.180,-1944.818969727,-1.553672075,0
3.182,-1944.171997070,-0.705204427,0
3.184,-1946.846069336,-2.628353834,0
3.186,-1950.208129883,-4.659080982,0
3.188,-1950.380615234,-3.757816076,0
3.190,-1954.744628906,-6.316921711,0
3.192,-1955.910644531,-5.820002556,0
3.194,-1949.445678711,0.501602292,0
3.196,-1946.729003906,2.503082991,0
3.198,-1930.317993164,14.710807800,0
3.200,-1911.124511719,26.369625092,0
3.202,-1903.134399414,26.723896027,0
3.204,-1887.949218750,32.595546722,0
3.206,-1873.073974609,36.921199799,0
3.208,-1875.858032227,26.550807953,0
3.210,-1881.288452148,16.426757813,0
3.212,-1890.844726563,5.343595505,0
3.214,-1909.546875000,-10.389795303,0
3.216,-1913.623413086,-11.251436234,0
3.218,-1916.667358398,-11.118527412,0
3.220,-1927.803100586,-17.308612823,0
3.222,-1924.850708008,-11.165833473,0
3.224,-1923.418701172,-7.570660591,0
3.226,-1927.577392578,-9.122744560,0
3.228,-1925.999877930,-5.868368149,0
3.230,-1926.505004883,-4.957082272,0
3.232,-1922.352172852,-0.625562131,0
3.234,-1919.167846680,1.990130544,0
3.236,-1933.122558594,-9.305688858,0
3.238,-1940.046752930,-12.623083115,0
3.240,-1940.835815430,-10.431479454,0
3.242,-1952.934326172,-17.523111343,0
3.244,-1962.849853516,-21.340906143,0
3.246,-1965.019165039,-18.285509109,0
3.248,-1965.222045898,-14.379688263,0
3.250,-1973.074218750,-17.291141510,0
3.252,-1976.175537109,-15.860648155,0
3.254,-1977.719238281,-13.536540031,0
3.256,-1978.418823242,-11.072366714,0
3.258,-1980.617553711,-10.321809769,0
3.260,-1987.101318359,-13.070904732,0
3.262,-1989.901367188,-12.343849182,0
3.264,-1987.793212891,-7.961017609,0
3.266,-1984.046142578,-3.277451754,0
3.268,-1981.102050781,-0.259336323,0
3.270,-1987.499511719,-5.177380085,0
3.272,-1991.226074219,-6.925203800,0
3.274,-1988.765502930,-3.472465277,0
3.276,-1988.952026367,-2.845819235,0
3.278,-1989.138793945,-2.358662605,0
3.280,-1990.685424805,-3.037442207,0
3.282,-1991.195190430,-2.758918047,0
3.284,-1985.753051758,2.086950064,0
3.286,-1989.836425781,-1.552735686,0
3.288,-1992.648803711,-3.395084620,0
3.290,-1990.726562500,-1.145512462,0
3.292,-1990.365112305,-0.609833777,0
3.294,-1992.965942383,-2.497140169,0
3.296,-1995.725097656,-4.088204861,0
3.298,-1991.292480469,0.267880231,0
3.300,-1984.005981445,5.875541687,0
3.302,-1990.952636719,-0.833013773,0
3.304,-1992.176391602,-1.599727154,0
3.306,-1990.677124023,-0.078154594,0
3.308,-1993.662231445,-2.382512569,0
3.310,-1993.970214844,-2.092561007,0
3.312,-1998.472290039,-5.129095554,0
3.314,-2009.495605469,-12.562810898,0
3.316,-2021.473632813,-19.087087631,0
3.318,-2057.600585938,-42.943675995,0
3.320,-2145.704101563,-101.924308777,0
3.322,-2247.430175781,-158.392684937,0
3.324,-2345.893066406,-199.773956299,0
3.326,-2434.985107422,-224.670623779,0
3.328,-2462.831542969,-196.399597168,0
3.330,-2441.463867188,-136.134155273,0
3.332,-2431.023193359,-97.760337830,0
3.334,-2429.846435547,-75.119651794,0
3.336,-2346.907226563,6.081789970,0
3.338,-2212.462158203,109.297309875,0
3.340,-2076.556640625,190.710876465,0
3.342,-1796.741455078,365.959899902,0
3.344,-1428.177490234,571.288940430,0
3.346,-1014.296325684,766.233520508,0
3.348,-428.094512939,1051.880493164,0
3.350,164.918853760,1279.345214844,0
3.352,531.578674316,1280.209594727,0
3.354,567.606811523,1023.727111816,0
3.356,361.217315674,635.698791504,0
3.358,135.568283081,318.923461914,0
3.360,-160.987380981,17.396947861,0
3.362,-509.011932373,-257.151458740,0
3.364,-718.988830566,-363.317352295,0
3.366,-893.620788574,-418.399597168,0
3.368,-1177.880249023,-546.505493164,0
3.370,-1507.299682617,-681.266113281,0
3.372,-1781.076293945,-742.801330566,0
3.374,-1974.889770508,-728.468688965,0
3.376,-2063.784912109,-635.719238281,0
3.378,-2090.244628906,-515.021423340,0
3.380,-2102.972656250,-410.466430664,0
3.382,-2094.065673828,-312.319915771,0
3.384,-2095.207031250,-243.800094604,0
3.386,-2086.251708984,-182.654663086,0
3.388,-2064.919189453,-125.471092224,0
3.390,-2071.947753906,-103.054046631,0
3.392,-2083.497070313,-89.134788513,0
3.394,-2082.426025391,-68.493064880,0
3.396,-2071.996582031,-45.160068512,0
3.398,-2054.967285156,-21.879098892,0
3.400,-2041.443359375,-6.498391628,0
3.402,-2034.196899414,0.581832886,0
3.404,-2025.326049805,7.351936817,0
3.406,-2017.944458008,11.459304810,0
3.408,-2013.911132813,12.049652100,0
3.410,-2014.584350586,8.848238945,0
3.412,-2011.622558594,9.185455322,0
3.414,-2006.151611328,11.399223328,0
3.416,-2007.420776367,7.878861427,0
3.418,-2008.523559570,5.270169735,0
3.420,-2010.175537109,2.814185143,0
3.422,-2009.354858398,2.827070713,0
3.424,-2007.065917969,3.979041815,0
3.426,-2011.962402344,-0.713591814,0
3.428,-2014.045288086,-2.174939632,0
3.430,-2012.767089844,-0.697532296,0
3.432,-2008.760375977,2.573836565,0
3.434,-2008.121459961,2.498783112,0
3.436,-2011.366333008,-0.580302775,0
3.438,-2003.525512695,5.647012711,0
3.440,-2004.477539063,3.651565552,0
3.442,-2010.149780273,-1.571575522,0
3.444,-2003.490844727,3.956713676,0
3.446,-2000.457519531,5.436624050,0
3.448,-2006.623168945,-0.566951513,0
3.450,-2005.458374023,0.464927971,0
3.452,-2001.083984375,3.763901234,0
3.454,-2001.425659180,2.661669254,0
3.456,-2001.808349609,1.772531271,0
3.458,-2002.138793945,1.121648788,0
3.460,-1999.140502930,3.204313755,0
3.462,-2003.575317383,-0.957038879,0
3.464,-2003.570678711,-0.740766525,0
3.466,-1998.375000000,3.464879513,0
3.468,-1998.917602539,2.272896528,0
3.470,-1998.925170898,1.761901379,0
3.472,-2001.600830078,-0.710700750,0
3.474,-1999.026123047,1.449790955,0
3.476,-1995.253784180,4.061536312,0
3.478,-2001.508056641,-1.705416083,0
3.480,-2001.766601563,-1.527470589,0
3.482,-1995.280639648,3.856509686,0
3.484,-1991.468872070,5.964187145,0
3.486,-1991.856811523,4.336993694,0
3.488,-1996.496948242,-0.235733420,0
3.490,-1997.066772461,-0.626549661,0
3.492,-1993.051635742,2.635511398,0
3.494,-1990.950805664,3.683743477,0
3.496,-1990.427856445,3.271835089,0
3.498,-1990.580322266,2.426147223,0
3.500,-1989.117187500,3.025010586,0
3.502,-1989.154541016,2.323682547,0
3.504,-1985.669433594,4.517885685,0
3.506,-1982.407592773,6.050857544,0
3.508,-1986.978027344,1.151392817,0
3.510,-1983.330688477,3.732291698,0
3.512,-1979.466308594,5.908461571,0
3.514,-1978.552490234,5.306108475,0
3.516,-1976.965332031,5.361349106,0
3.518,-1975.339111328,5.434754848,0
3.520,-1971.015380859,7.589867115,0
3.522,-1969.312011719,7.227957249,0
3.524,-1972.855712891,2.865457296,0
3.526,-1970.945312500,3.714555979,0
3.528,-1965.409912109,7.194277287,0
3.530,-1960.018188477,9.788968086,0
3.532,-1957.925048828,9.241507530,0
3.534,-1957.454833984,7.553463459,0
3.536,-1954.454101563,8.208711624,0
3.538,-1953.312744141,7.272195816,0
3.540,-1949.781127930,8.402898788,0
3.542,-1952.688232422,4.274401188,0
3.544,-1948.234252930,6.788684368,0
3.546,-1940.627075195,11.196660995,0
3.548,-1942.316894531,7.394116879,0
3.550,-1940.034912109,7.525681019,0
3.552,-1939.022827148,6.640416145,0
3.554,-1937.781738281,6.130004883,0
3.556,-1934.932006836,6.984191418,0
3.558,-1932.030883789,7.688436031,0
3.560,-1928.574829102,8.667863846,0
3.562,-1924.204467773,10.140686989,0
3.564,-1922.939331055,8.871095657,0
3.566,-1918.228027344,10.563949585,0
3.568,-1913.836303711,11.631979942,0
3.570,-1909.837524414,12.157135010,0
3.572,-1904.639526367,13.498212814,0
3.574,-1901.020996094,13.312942505,0
3.576,-1899.824584961,11.284821510,0
3.578,-1897.530517578,10.561284065,0
3.580,-1890.280761719,13.852825165,0
3.582,-1882.991577148,16.443567276,0
3.584,-1877.442504883,17.105169296,0
3.586,-1869.042846680,19.836837769,0
3.588,-1859.042724609,23.206251144,0
3.590,-1856.921508789,19.698843002,0
3.592,-1846.637084961,23.320024490,0
3.594,-1835.345581055,26.919740677,0
3.596,-1827.975341797,26.669670105,0
3.598,-1820.100952148,26.867238998,0
3.600,-1816.322387695,23.835271835,0
3.602,-1807.721191406,25.228029251,0
3.604,-1796.115844727,28.647781372,0
3.606,-1788.508666992,28.197948456,0
3.608,-1781.380126953,27.475799561,0
3.610,-1769.212402344,30.833473206,0
3.612,-1758.482421875,32.326705933,0
3.614,-1749.252197266,32.321643829,0
3.616,-1736.270751953,35.235271454,0
3.618,-1729.679687500,32.531196594,0
3.620,-1724.511230469,29.321573257,0
3.622,-1715.171875000,30.069253922,0
3.624,-1705.277709961,31.082185745,0
3.626,-1698.081665039,29.771617889,0
3.628,-1699.180786133,22.300498962,0
3.630,-1697.086425781,18.973529816,0
3.632,-1694.387084961,16.856447220,0
3.634,-1690.260253906,16.320142746,0
3.636,-1694.237304688,9.600102425,0
3.638,-1696.928710938,5.373347282,0
3.640,-1701.970092773,0.258130878,0
3.642,-1719.355346680,-13.320836067,0
3.644,-1727.179687500,-16.446121216,0
3.646,-1731.327880859,-16.017591476,0
3.648,-1745.977416992,-23.851888657,0
3.650,-1760.298095703,-29.689390182,0
3.652,-1771.545043945,-31.838953018,0
3.654,-1778.683471680,-30.315315247,0
3.656,-1790.205444336,-32.539699554,0
3.658,-1803.689331055,-35.795700073,0
3.660,-1817.700683594,-38.738315582,0
3.662,-1828.917236328,-38.853206635,0
3.664,-1837.064086914,-36.555179596,0
3.666,-1848.709838867,-37.489131927,0
3.668,-1858.337158203,-36.645629883,0
3.670,-1863.124877930,-32.225536346,0
3.672,-1867.165405273,-28.206556320,0
3.674,-1883.361938477,-34.535251617,0
3.676,-1894.209106445,-35.296997070,0
3.678,-1896.286987305,-29.069021225,0
3.680,-1908.981079102,-32.481952667,0
3.682,-1918.819824219,-32.915660858,0
3.684,-1918.327026367,-25.217483521,0
3.686,-1927.651367188,-26.865520477,0
3.688,-1937.259155273,-28.367797852,0
3.690,-1943.663208008,-27.044387817,0
3.692,-1948.973144531,-25.164113998,0
3.694,-1953.159301758,-22.827735901,0
3.696,-1958.325683594,-21.772876740,0
3.698,-1958.780761719,-17.288228989,0
3.700,-1962.587768555,-16.407215118,0
3.702,-1968.793334961,-17.587450027,0
3.704,-1970.460937500,-14.975906372,0
3.706,-1974.527709961,-14.810799599,0
3.708,-1981.015258789,-16.565235138,0
3.710,-1985.808593750,-16.611993790,0
3.712,-1990.554077148,-16.611103058,0
3.714,-1993.836791992,-15.472825050,0
3.716,-1998.574707031,-15.719259262,0
3.718,-1995.009155273,-9.452741623,0
3.720,-1992.802246094,-5.635566235,0
3.722,-1999.329101563,-9.459564209,0
3.724,-1998.009521484,-6.331032753,0
3.726,-1994.668823242,-2.325717449,0
3.728,-2001.072387695,-6.789338589,0
3.730,-2006.490966797,-9.494986534,0
3.732,-2007.455322266,-8.134930611,0
3.734,-2004.116455078,-3.730201960,0
3.736,-2003.354614258,-2.308703423,0
3.738,-2005.795898438,-3.694356680,0
3.740,-2011.842285156,-7.576103687,0
3.742,-2009.522827148,-4.088371754,0
3.744,-2009.403198242,-3.086772919,0
3.746,-2012.134155273,-4.524878025,0
3.748,-2009.989379883,-1.851177335,0
3.750,-2010.902832031,-2.150234461,0
3.752,-2015.006713867,-4.864220619,0
3.754,-2018.124267578,-6.207939148,0
3.756,-2020.047485352,-6.324208736,0
3.758,-2025.477539063,-9.142052650,0
3.760,-2025.305419922,-6.976573944,0
3.762,-2022.161621094,-2.980979204,0
3.764,-2026.599975586,-5.770517349,0
3.766,-2027.931518555,-5.523734570,0
3.768,-2028.086181641,-4.416518211,0
3.770,-2030.962036133,-5.671723843,0
3.772,-2031.639160156,-4.937914371,0
3.774,-2034.980712891,-6.439486027,0
3.776,-2034.221069336,-4.417679787,0
3.778,-2035.070556641,-4.096631050,0
3.780,-2036.220336914,-4.080416203,0
3.782,-2041.379638672,-7.186352730,0
3.784,-2043.090698242,-6.920161724,0
3.786,-2037.713256836,-1.199854970,0
3.788,-2040.074707031,-2.769892454,0
3.790,-2041.141357422,-2.983949900,0
3.792,-2039.905029297,-1.359271884,0
3.794,-2046.834838867,-6.446929932,0
3.796,-2044.063354492,-2.858680487,0
3.798,-2040.256835938,0.737231553,0
3.800,-2043.013916016,-1.570987582,0
3.802,-2044.623657227,-2.473860979,0
3.804,-2043.042236328,-0.694071233,0
3.806,-2048.396972656,-4.704555511,0
3.808,-2050.911132813,-5.614499569,0
3.810,-2042.067504883,2.511480331,0
3.812,-2050.867919922,-4.891351223,0
3.814,-2057.386474609,-8.874143600,0
3.816,-2044.661743164,2.994774818,0
3.818,-2046.893798828,0.593219340,0
3.820,-2053.052490234,-4.328678608,0
3.822,-2048.903076172,-0.139427125,0
3.824,-2049.787597656,-0.796344042,0
3.826,-2055.781250000,-5.281101227,0
3.828,-2056.940429688,-5.009033203,0
3.830,-2054.763427734,-2.202575445,0
3.832,-2053.529785156,-0.753618896,0
3.834,-2051.112060547,1.294265985,0
3.836,-2053.010986328,-0.470391840,0
3.838,-2053.518554688,-0.760506928,0
3.840,-2055.820312500,-2.381697416,0
3.842,-2054.831298828,-1.083177209,0
3.844,-2057.662841797,-3.044774294,0
3.846,-2066.048095703,-8.889907837,0
3.848,-2061.156982422,-3.110202551,0
3.850,-2053.310546875,3.683801651,0
3.852,-2057.375732422,-0.296635151,0
3.854,-2059.593505859,-1.955782890,0
3.856,-2057.410644531,0.176741987,0
3.858,-2060.564697266,-2.315724850,0
3.860,-2062.060791016,-2.964745760,0
3.862,-2063.977294922,-3.796326399,0
3.864,-2059.864013672,0.246423379,0
3.866,-2057.246826172,2.227236509,0
3.868,-2056.295410156,2.472234249,0
3.870,-2054.487060547,3.329262733,0
3.872,-2054.486083984,2.590295076,0
3.874,-2060.538085938,-2.692539454,0
3.876,-2063.327148438,-4.263308525,0
3.878,-2058.355468750,0.550818741,0
3.880,-2062.265869141,-2.612916231,0
3.882,-2067.909179688,-6.421495438,0
3.884,-2065.917236328,-3.445056677,0
3.886,-2064.560302734,-1.624136448,0
3.888,-2060.738037109,1.709652781,0
3.890,-2059.360595703,2.401004076,0
3.892,-2060.954101563,0.628043532,0
3.894,-2063.980468750,-1.865361571,0
3.896,-2070.263671875,-6.337542534,0
3.898,-2069.379638672,-4.241557121,0
3.900,-2062.246826172,2.248626709,0
3.902,-2064.982666016,-0.378908902,0
3.904,-2063.404296875,0.932907343,0
3.906,-2062.505615234,1.424628735,0
3.908,-2066.236328125,-1.793664098,0
3.910,-2065.556396484,-0.866320789,0
3.912,-2065.969482422,-0.994948685,0
3.914,-2069.022949219,-3.148772478,0
3.916,-2068.385742188,-1.953500509,0
3.918,-2065.436035156,0.774915099,0
3.920,-2073.236083984,-5.463938236,0
3.922,-2072.233398438,-3.469866037,0
3.924,-2065.167480469,2.796867609,0
3.926,-2073.148437500,-4.031940937,0
3.928,-2073.054931641,-3.063145638,0
3.930,-2063.437011719,5.098100662,0
3.932,-2067.700195313,0.649347842,0
3.934,-2070.927246094,-2.004818439,0
3.936,-2068.457275391,0.361623168,0
3.938,-2068.227783203,0.459911764,0
3.940,-2070.500976563,-1.410307407,0
3.942,-2068.828857422,0.203532577,0
3.944,-2065.017089844,3.123056889,0
3.946,-2071.936035156,-2.952317238,0
3.948,-2077.567871094,-6.676529408,0
3.950,-2069.730712891,0.902687967,0
3.952,-2064.530029297,4.746950626,0
3.954,-2064.452636719,3.752341032,0
3.956,-2060.109130859,6.296559334,0
3.958,-2060.354492188,4.706430435,0
3.960,-2065.336425781,-0.214209110,0
3.962,-2066.794921875,-1.300916910,0
3.964,-2067.624267578,-1.656930447,0
3.966,-2067.131835938,-0.905651987,0
3.968,-2068.320312500,-1.628780127,0
3.970,-2070.039794922,-2.604231119,0
3.972,-2072.370117188,-3.837872267,0
3.974,-2071.145996094,-2.032845736,0
3.976,-2067.387207031,1.342273951,0
3.978,-2065.665283203,2.383272409,0
3.980,-2066.295654297,1.363314271,0
3.982,-2071.520019531,-3.002948523,0
3.984,-2075.965087891,-5.792773724,0
3.986,-2069.736816406,0.338634133,0
3.988,-2065.110107422,3.861916780,0
3.990,-2072.355957031,-2.631999969,0
3.992,-2073.277832031,-2.764047146,0
3.994,-2066.907226563,2.805064440,0
3.996,-2067.489990234,1.728363752,0
3.998,-2072.946777344,-2.899812222,0
4.000,-2073.855224609,-2.961970806,0
4.002,-2068.640625000,1.752196908,0
4.004,-2069.883300781,0.396230251,0
4.006,-2069.288818359,0.770555198,0
4.008,-2069.840087891,0.170449093,0
4.010,-2081.623291016,-9.031926155,0
4.012,-2083.376464844,-8.388254166,0
4.014,-2078.301757813,-2.577311993,0
4.016,-2080.156005859,-3.446677446,0
4.018,-2076.209716797,0.388560712,0
4.020,-2077.334228516,-0.572394371,0
4.022,-2075.750000000,0.786992431,0
4.024,-2072.662109375,3.013750315,0
4.026,-2072.813964844,2.225971937,0
4.028,-2073.607910156,1.113628268,0
4.030,-2074.272949219,0.348965019,0
4.032,-2077.090820313,-1.920211554,0
4.034,-2078.446289063,-2.547630310,0
4.036,-2076.513916016,-0.478585094,0
4.038,-2074.382080078,1.285736918,0
4.040,-2078.540039063,-2.233923674,0
4.042,-2079.070800781,-2.150254011,0
4.044,-2078.865478516,-1.512615204,0
4.046,-2084.165039063,-5.298264027,0
4.048,-2086.221191406,-5.720186710,0
4.050,-2087.417968750,-5.379710674,0
4.052,-2087.193115234,-4.009278297,0
4.054,-2084.556884766,-1.067853093,0
4.056,-2085.278564453,-1.391891479,0
4.058,-2084.809570313,-0.717717528,0
4.060,-2086.350097656,-1.756426454,0
4.062,-2091.128417969,-5.082626343,0
4.064,-2091.434082031,-4.190792561,0
4.066,-2090.837890625,-2.795673370,0
4.068,-2093.248779297,-4.049578190,0
4.070,-2094.401367188,-4.046056271,0
4.072,-2089.735107422,0.482298046,0
4.074,-2090.109863281,0.083668485,0
4.076,-2091.384277344,-0.926009655,0
4.078,-2090.065917969,0.305065393,0
4.080,-2091.249511719,-0.683293402,0
4.082,-2092.851074219,-1.777053356,0
4.084,-2095.216796875,-3.222057104,0
4.086,-2090.491455078,1.169083595,0
4.088,-2092.148193359,-0.379165292,0
4.090,-2097.966064453,-4.819873333,0
4.092,-2084.414550781,6.791099072,0
4.094,-2088.418212891,2.167977571,0
4.096,-2099.872314453,-7.222374439,0
4.098,-2091.661865234,0.768449664,0
4.100,-2086.175781250,4.864583969,0
4.102,-2092.413818359,-1.068157554,0
4.104,-2091.205566406,0.108868405,0
4.106,-2084.034912109,5.661823273,0
4.108,-2093.594970703,-3.031857967,0
4.110,-2098.183593750,-5.926970959,0
4.112,-2091.148681641,0.861637473,0
4.114,-2094.811279297,-2.178520679,0
4.116,-2101.546875000,-6.933140278,0
4.118,-2092.818603516,1.396271348,0
4.120,-2090.032714844,3.252638102,0
4.122,-2095.326660156,-1.587567806,0
4.124,-2095.860595703,-1.649951696,0
4.126,-2104.792968750,-8.230691910,0
4.128,-2100.515625000,-3.074692011,0
4.130,-2084.450927734,10.103034973,0
4.132,-2095.224609375,-0.521556377,0
4.134,-2098.480712891,-2.938100100,0
4.136,-2092.457031250,2.399784565,0
4.138,-2099.723876953,-3.785358667,0
4.140,-2094.124511719,1.410925984,0
4.142,-2085.333496094,7.934777260,0
4.144,-2086.455566406,5.298702717,0
4.146,-2085.276123047,5.038359165,0
4.148,-2084.096435547,4.836217403,0
4.150,-2081.179199219,6.030354023,0
4.152,-2078.723144531,6.600417137,0
4.154,-2081.179687500,3.223071337,0
4.156,-2081.503173828,2.255148888,0
4.158,-2077.847656250,4.597107410,0
4.160,-2075.434570313,5.452377319,0
4.162,-2079.409423828,1.149093390,0
4.164,-2080.401367188,0.122249812,0
4.166,-2079.538085938,0.766579509,0
4.168,-2079.931396484,0.290211529,0
4.170,-2081.705322266,-1.153847098,0
4.172,-2081.890136719,-1.041274905,0
4.174,-2089.052246094,-6.380264282,0
4.176,-2090.586425781,-6.155652046,0
4.178,-2079.213867188,4.057616711,0
4.180,-2071.176513672,9.407091141,0
4.182,-2058.541259766,17.143812180,0
4.184,-2041.813720703,26.344036102,0
4.186,-2032.886596680,27.432733536,0
4.188,-2019.919677734,31.421579361,0
4.190,-2005.012695313,36.032810211,0
4.192,-2002.490478516,29.986907959,0
4.194,-2010.990722656,16.711608887,0
4.196,-2024.824096680,2.238599539,0
4.198,-2043.988891602,-13.164629936,0
4.200,-2054.784423828,-18.635467529,0
4.202,-2057.747558594,-16.798748016,0
4.204,-2064.468505859,-18.292861938,0
4.206,-2066.646240234,-15.921406746,0
4.208,-2064.480224609,-10.698357582,0
4.210,-2067.022460938,-10.298071861,0
4.212,-2069.504882813,-9.940245628,0
4.214,-2070.526123047,-8.525508881,0
4.216,-2066.159667969,-3.234930754,0
4.218,-2071.062500000,-6.329185009,0
4.220,-2074.028320313,-7.229471207,0
4.222,-2075.956054688,-7.122029305,0
4.224,-2082.008789063,-10.246887207,0
4.226,-2094.491699219,-17.678625107,0
4.228,-2106.770507813,-23.299810410,0
4.230,-2107.208251953,-18.462408066,0
4.232,-2107.343994141,-14.464970589,0
4.234,-2108.856933594,-12.427151680,0
4.236,-2114.166992188,-13.795414925,0
4.238,-2119.311035156,-14.730507851,0
4.240,-2118.304199219,-10.673752785,0
4.242,-2117.888427734,-7.978383064,0
4.244,-2118.258544922,-6.493164539,0
4.246,-2121.929199219,-7.905076981,0
4.248,-2124.083496094,-7.823945999,0
4.250,-2117.045166016,-0.611026525,0
4.252,-2115.314208984,0.871183217,0
4.254,-2121.038574219,-3.774734497,0
4.256,-2123.746826172,-5.042337418,0
4.258,-2123.418457031,-3.666304588,0
4.260,-2121.406738281,-1.286863327,0
4.262,-2124.454833984,-3.371657133,0
4.264,-2132.561279297,-8.927217484,0
4.266,-2132.771484375,-7.106897354,0
4.268,-2131.325195313,-4.402586937,0
4.270,-2133.410156250,-5.045819759,0
4.272,-2127.013427734,1.050682664,0
4.274,-2124.845703125,2.503146410,0
4.276,-2126.338623047,0.785718918,0
4.278,-2128.435302734,-1.019619584,0
4.280,-2134.628662109,-5.609892845,0
4.282,-2128.921142578,0.075958200,0
4.284,-2129.261230469,-0.205443650,0
4.286,-2133.200683594,-3.223754406,0
4.288,-2133.964355469,-3.101407528,0
4.290,-2133.297363281,-1.893445492,0
4.292,-2130.777343750,0.487362683,0
4.294,-2130.957275391,0.239202961,0
4.296,-2138.012451172,-5.301352024,0
4.298,-2150.954589844,-14.189098358,0
4.300,-2173.304931641,-28.419179916,0
4.302,-2218.834960938,-57.515411377,0
4.304,-2307.421142578,-113.632965088,0
4.306,-2416.937011719,-173.557968140,0
4.308,-2521.481201172,-216.298889160,0
4.310,-2584.369384766,-217.142822266,0
4.312,-2593.596923828,-176.063385010,0
4.314,-2565.430908203,-115.029830933,0
4.316,-2549.862548828,-77.357986450,0
4.318,-2521.107177734,-37.801544189,0
4.320,-2395.746826172,68.100402832,0
4.322,-2234.743408203,178.189651489,0
4.324,-2046.030517578,285.364837646,0
4.326,-1729.402587891,468.210601807,0
4.328,-1352.581054688,657.238647461,0
4.330,-904.608154297,859.597839355,0
4.332,-319.353179932,1123.759765625,0
4.334,184.444519043,1265.861572266,0
4.336,422.241760254,1169.497314453,0
4.338,353.305572510,855.980834961,0
4.340,127.150047302,489.857757568,0
4.342,-123.785644531,185.825866699,0
4.344,-575.430786133,-206.745635986,0
4.346,-975.893981934,-472.267425537,0
4.348,-1130.075561523,-487.231811523,0
4.350,-1285.833496094,-500.096618652,0
4.352,-1507.662231445,-561.490173340,0
4.354,-1798.540771484,-662.944885254,0
4.356,-2068.812500000,-725.825683594,0
4.358,-2223.339843750,-684.710144043,0
4.360,-2271.520751953,-570.019042969,0
4.362,-2277.815185547,-448.237823486,0
4.364,-2286.168212891,-355.121765137,0
4.366,-2275.153808594,-267.635559082,0
4.368,-2265.629638672,-200.750717163,0
4.370,-2257.834960938,-150.074890137,0
4.372,-2236.080078125,-99.803169250,0
4.374,-2229.583251953,-72.570747375,0
4.376,-2240.107666016,-64.628738403,0
4.378,-2233.766601563,-45.334129333,0
4.380,-2219.419921875,-24.101039886,0
4.382,-2213.306884766,-13.990468979,0
4.384,-2189.855224609,7.358469963,0
4.386,-2170.865722656,20.492719650,0
4.388,-2168.557861328,17.733497620,0
4.390,-2159.009765625,21.218757629,0
4.392,-2152.677246094,21.428499222,0
4.394,-2152.804931641,16.567106247,0
4.396,-2148.074218750,16.564760208,0
4.398,-2146.177246094,14.358821869,0
4.400,-2141.465332031,14.832623482,0
4.402,-2140.174560547,12.540263176,0
4.404,-2142.817138672,7.698187828,0
4.406,-2142.815429688,5.988646507,0
4.408,-2141.262451172,5.865643024,0
4.410,-2135.607666016,8.960182190,0
4.412,-2134.536621094,7.801982880,0
4.414,-2134.291015625,6.259271622,0
4.416,-2132.837890625,5.998342037,0
4.418,-2130.663574219,6.356422424,0
4.420,-2128.953369141,6.273993492,0
4.422,-2128.111328125,5.534598351,0
4.424,-2130.955566406,2.092462778,0
4.426,-2135.308593750,-1.758215427,0
4.428,-2131.170410156,1.851081371,0
4.430,-2126.174560547,5.325279713,0
4.432,-2124.514892578,5.432661533,0
4.434,-2125.748046875,3.266267300,0
4.436,-2125.689453125,2.586018324,0
4.438,-2123.075683594,4.044333458,0
4.440,-2125.307128906,1.409935236,0
4.442,-2124.432617188,1.776762009,0
4.444,-2117.865722656,6.489402294,0
4.446,-2118.462646484,4.583083630,0
4.448,-2120.429443359,2.034799814,0
4.450,-2113.646240234,6.858312607,0
4.452,-2112.507080078,6.220268726,0
4.454,-2115.702880859,2.352331638,0
4.456,-2122.863525391,-3.739801645,0
4.458,-2122.000244141,-2.237322807,0
4.460,-2112.325439453,5.784595966,0
4.462,-2115.035888672,2.390985966,0
4.464,-2115.544433594,1.464117169,0
4.466,-2109.844238281,5.572189808,0
4.468,-2113.385498047,1.579563022,0
4.470,-2110.176269531,3.724609137,0
4.472,-2104.598144531,7.235416412,0
4.474,-2106.220458984,4.365584850,0
4.476,-2108.822509766,1.371779442,0
4.478,-2106.191650391,3.113053560,0
4.480,-2101.884277344,5.771383762,0
4.482,-2097.367919922,8.001415253,0
4.484,-2092.017578125,10.384489059,0
4.486,-2095.592529297,5.296300888,0
4.488,-2091.792236328,7.075041294,0
4.490,-2084.079589844,11.501372337,0
4.492,-2091.919189453,2.848120689,0
4.494,-2094.036621094,0.568143964,0
4.496,-2083.940429688,8.294527054,0
4.498,-2080.976318359,8.756450653,0
4.500,-2079.274658203,8.134143829,0
4.502,-2072.478515625,11.612170219,0
4.504,-2072.719726563,8.844023705,0
4.506,-2069.607910156,9.298848152,0
4.508,-2068.739013672,7.908173561,0
4.510,-2075.318359375,1.033432841,0
4.512,-2068.206542969,6.335187912,0
4.514,-2065.658691406,6.908986092,0
4.516,-2066.718994141,4.548937321,0
4.518,-2058.725830078,9.754854202,0
4.520,-2053.189941406,11.892552376,0
4.522,-2053.060058594,9.350601196,0
4.524,-2049.609863281,9.956082344,0
4.526,-2045.797851563,10.708391190,0
4.528,-2039.988647461,12.846835136,0
4.530,-2030.903930664,17.057722092,0
4.532,-2034.820068359,10.221070290,0
4.534,-2030.798583984,11.077364922,0
4.536,-2020.529296875,16.602724075,0
4.538,-2020.205322266,13.165115356,0
4.540,-2019.391113281,10.872603416,0
4.542,-2011.987915039,14.214331627,0
4.544,-2004.038208008,17.238531113,0
4.546,-2000.941284180,15.816223145,0
4.548,-1997.358398438,15.088006020,0
4.550,-1989.657470703,17.724475861,0
4.552,-1984.694335938,17.645751953,0
4.554,-1978.754882813,18.343805313,0
4.556,-1968.788818359,22.018476486,0
4.558,-1963.295776367,21.397594452,0
4.560,-1960.351928711,18.931911469,0
4.562,-1948.600219727,23.864738464,0
4.564,-1937.599853516,27.116979599,0
4.566,-1929.967529297,27.026861191,0
4.568,-1916.413330078,31.562643051,0
4.570,-1908.392578125,30.786712646,0
4.572,-1900.635498047,29.978107452,0
4.574,-1891.578125000,30.360546112,0
4.576,-1884.782958984,28.898452759,0
4.578,-1870.109863281,33.888610840,0
4.580,-1858.003906250,35.773097992,0
4.582,-1844.699584961,38.170833588,0
4.584,-1833.452270508,38.435829163,0
4.586,-1828.416870117,33.810535431,0
4.588,-1815.373901367,36.441089630,0
4.590,-1798.078491211,41.794528961,0
4.592,-1787.968383789,40.369739532,0
4.594,-1775.522094727,41.078571320,0
4.596,-1760.594238281,43.559993744,0
4.598,-1755.130493164,38.129062653,0
4.600,-1748.076416016,35.142063141,0
4.602,-1734.426635742,37.948665619,0
4.604,-1719.485107422,41.136306763,0
4.606,-1713.555175781,36.606616974,0
4.608,-1713.604858398,28.432809830,0
4.610,-1710.573608398,24.471666336,0
4.612,-1709.961059570,19.509704590,0
4.614,-1707.385253906,17.177413940,0
4.616,-1706.150756836,14.320197105,0
4.618,-1710.236328125,7.960174561,0
4.620,-1718.986694336,-0.614603281,0
4.622,-1725.197875977,-5.308920383,0
4.624,-1734.446777344,-11.322587967,0
4.626,-1753.016845703,-23.249544144,0
4.628,-1765.762084961,-27.995578766,0
4.630,-1777.926147461,-31.234830856,0
4.632,-1803.296508789,-44.025749207,0
4.634,-1817.603393555,-45.369197845,0
4.636,-1820.144165039,-37.262847900,0
4.638,-1840.475830078,-44.795101166,0
4.640,-1867.565673828,-55.909759521,0
4.642,-1878.142211914,-51.710948944,0
4.644,-1892.738159180,-51.571327209,0
4.646,-1913.989013672,-56.638763428,0
4.648,-1923.144287109,-51.172515869,0
4.650,-1934.467041016,-48.606792450,0
4.652,-1951.166870117,-50.793338776,0
4.654,-1968.506347656,-52.991493225,0
4.656,-1977.734008789,-48.392086029,0
4.658,-1981.855224609,-40.843170166,0
4.660,-1997.999389648,-44.322841644,0
4.662,-2013.892089844,-46.833763123,0
4.664,-2021.532836914,-42.368488312,0
4.666,-2031.332763672,-40.574871063,0
4.668,-2036.475585938,-35.557796478,0
4.670,-2040.914428711,-31.108060837,0
4.672,-2052.962646484,-33.565601349,0
4.674,-2059.575195313,-31.249183655,0
4.676,-2067.588867188,-30.537500381,0
4.678,-2077.604003906,-31.540401459,0
4.680,-2081.191406250,-27.321269989,0
4.682,-2087.903564453,-26.470178604,0
4.684,-2096.062988281,-26.933780670,0
4.686,-2097.060058594,-21.723672867,0
4.688,-2096.143066406,-16.182802200,0
4.690,-2108.044677734,-21.843172073,0
4.692,-2113.812988281,-21.475229263,0
4.694,-2112.361328125,-15.573642731,0
4.696,-2115.378906250,-14.459716797,0
4.698,-2114.439208984,-10.515457153,0
4.700,-2113.934082031,-7.785772800,0
4.702,-2118.709716797,-9.769872665,0
4.704,-2122.138183594,-10.265082359,0
4.706,-2126.615234375,-11.466096878,0
4.708,-2122.971679688,-6.084055901,0
4.710,-2121.497314453,-3.585303068,0
4.712,-2126.784912109,-6.900991440,0
4.714,-2128.363525391,-6.595282078,0
4.716,-2131.022216797,-7.197432041,0
4.718,-2133.501953125,-7.526587963,0
4.720,-2133.455810547,-5.817952156,0
4.722,-2132.326171875,-3.646496058,0
4.724,-2135.070068359,-4.970193386,0
4.726,-2138.027832031,-6.166126251,0
4.728,-2139.437744141,-5.892359257,0
4.730,-2142.729492188,-7.143108368,0
4.732,-2141.906494141,-4.915501118,0
4.734,-2141.510253906,-3.515047312,0
4.736,-2144.258300781,-4.871169567,0
4.738,-2142.227783203,-2.209349155,0
4.740,-2141.930175781,-1.486946225,0
4.742,-2148.395263672,-6.184749126,0
4.744,-2149.733642578,-5.851281643,0
4.746,-2146.176513672,-1.784433246,0
4.748,-2146.967041016,-2.002584457,0
4.750,-2151.619384766,-5.176043510,0
4.752,-2151.528076172,-3.954662800,0
4.754,-2153.291992188,-4.447865009,0
4.756,-2156.973144531,-6.322438717,0
4.758,-2156.254150391,-4.358114243,0
4.760,-2155.433593750,-2.751395702,0
4.762,-2158.396484375,-4.444432259,0
4.764,-2159.796386719,-4.545635700,0
4.766,-2158.912597656,-2.847906113,0
4.768,-2145.906738281,7.900522232,0
4.770,-2149.062744141,3.690042257,0
4.772,-2154.122314453,-1.065203428,0
4.774,-2152.542724609,0.400200814,0
4.776,-2160.545898438,-5.913494587,0
4.778,-2159.055908203,-3.440334320,0
4.780,-2157.786132813,-1.688226819,0
4.782,-2157.543945313,-1.124644756,0
4.784,-2156.110595703,0.240002021,0
4.786,-2156.742431641,-0.304660946,0
4.788,-2155.978515625,0.357039809,0
4.790,-2158.057861328,-1.339399934,0
4.792,-2153.678955078,2.363935471,0
4.794,-2149.503417969,5.086249352,0
4.796,-2152.148437500,1.898604035,0
4.798,-2151.059326172,2.323778391,0
4.800,-2153.153808594,0.178389654,0
4.802,-2155.465087891,-1.658905029,0
4.804,-2152.192626953,1.254952431,0
4.806,-2152.047851563,1.088710904,0
4.808,-2155.322998047,-1.700646758,0
4.810,-2154.587402344,-0.750523329,0
4.812,-2151.862548828,1.535579443,0
4.814,-2156.393554688,-2.329797983,0
4.816,-2154.826171875,-0.592931449,0
4.818,-2152.087646484,1.668789506,0
4.820,-2152.934570313,0.639247298,0
4.822,-2152.282714844,1.004149437,0
4.824,-2154.626220703,-1.041692257,0
4.826,-2152.216308594,1.064116001,0
4.828,-2151.995849609,0.999052882,0
4.830,-2158.990478516,-4.663033009,0
4.832,-2154.196533203,0.101692744,0
4.834,-2153.599121094,0.543817699,0
4.836,-2154.117919922,0.019485548,0
4.838,-2150.284179688,2.996895313,0
4.840,-2150.969482422,1.797850966,0
4.842,-2151.933105469,0.648799121,0
4.844,-2153.207275391,-0.486308604,0
4.846,-2152.591308594,0.100836843,0
4.848,-2151.203857422,1.157440424,0
4.850,-2155.784912109,-2.662726641,0
4.852,-2157.043457031,-3.049760103,0
4.854,-2153.977539063,0.012603691,0
4.856,-2152.697021484,1.005716681,0
4.858,-2154.328613281,-0.486840278,0
4.860,-2154.074951172,-0.181275085,0
4.862,-2147.275146484,5.147670746,0
4.864,-2147.434326172,3.879819155,0
4.866,-2152.595703125,-0.996727526,0
4.868,-2153.542236328,-1.511441588,0
4.870,-2153.818359375,-1.390256166,0
4.872,-2152.869384766,-0.343239427,0
4.874,-2150.010986328,1.956161261,0
4.876,-2154.634521484,-2.074508429,0
4.878,-2151.833984375,0.564579010,0
4.880,-2150.258789063,1.664320350,0
4.882,-2155.064453125,-2.443306923,0
4.884,-2148.444580078,3.248499155,0
4.886,-2149.822998047,1.454386830,0
4.888,-2155.144287109,-3.007526636,0
4.890,-2159.431884766,-5.673935413,0
4.892,-2156.596435547,-2.207623720,0
4.894,-2151.914306641,1.924499631,0
4.896,-2154.975097656,-0.883622885,0
4.898,-2151.915527344,1.692347884,0
4.900,-2149.527587891,3.173375845,0
4.902,-2150.958984375,1.354954958,0
4.904,-2152.092041016,0.172585517,0
4.906,-2149.167480469,2.408882380,0
4.908,-2149.310791016,1.762057185,0
4.910,-2150.610839844,0.359371811,0
4.912,-2150.978515625,-0.006533267,0
4.914,-2151.666015625,-0.539762199,0
4.916,-2144.476318359,5.172135830,0
4.918,-2142.890625000,5.256047726,0
4.920,-2145.658935547,1.934893250,0
4.922,-2144.088378906,2.726411104,0
4.924,-2143.717041016,2.409306288,0
4.926,-2140.841796875,4.110123634,0
4.928,-2139.149169922,4.513198853,0
4.930,-2140.349609375,2.576459885,0
4.932,-2138.864990234,3.158684254,0
4.934,-2140.605224609,1.103280902,0
4.936,-2140.038330078,1.298930407,0
4.938,-2135.362548828,4.646917343,0
4.940,-2140.891601563,-0.686054587,0
4.942,-2144.468505859,-3.315640926,0
4.944,-2137.211425781,3.065644264,0
4.946,-2136.462158203,2.966996431,0
4.948,-2139.153076172,0.214748085,0
4.950,-2137.362304688,1.559898019,0
4.952,-2137.990478516,0.724661052,0
4.954,-2135.462158203,2.530032158,0
4.956,-2131.538574219,5.019475937,0
4.958,-2133.563720703,2.328822374,0
4.960,-2139.030761719,-2.440796614,0
4.962,-2135.895263672,0.540220618,0
4.964,-2134.203125000,1.736312985,0
4.966,-2135.328369141,0.475375026,0
4.968,-2129.449462891,4.941980839,0
4.970,-2127.802246094,5.124966621,0
4.972,-2130.486816406,1.898082376,0
4.974,-2130.089599609,1.785201907,0
4.976,-2126.897949219,3.870794773,0
4.978,-2128.800537109,1.530739427,0
4.980,-2128.557617188,1.379488587,0
4.982,-2128.363281250,1.224202394,0
4.984,-2130.219238281,-0.491322458,0
4.986,-2124.611328125,3.979401588,0
4.988,-2122.348632813,4.855005264,0
4.990,-2126.389892578,0.632786155,0
4.992,-2126.577392578,0.346435279,0
4.994,-2128.050292969,-0.876185954,0
4.996,-2128.410644531,-0.961749494,0
4.998,-2125.086669922,1.837211132,0
5.000,-2120.054199219,5.343016624,0
5.002,-2120.588623047,3.740098715,0
5.004,-2121.904541016,1.885424733,0
5.006,-2119.524169922,3.317772150,0
5.008,-2121.641601563,0.933501601,0
5.010,-2119.560058594,2.345024109,0
5.012,-2123.638671875,-1.348307252,0
5.014,-2128.528076172,-4.851478100,0
5.016,-2115.639404297,6.250987053,0
5.018,-2108.722167969,10.241912842,0
5.020,-2117.233154297,1.346162677,0
5.022,-2119.553222656,-0.757430375,0
5.024,-2119.391601563,-0.463377595,0
5.026,-2118.848632813,0.061970104,0
5.028,-2115.918212891,2.327336788,0
5.030,-2111.443847656,5.290118694,0
5.032,-2119.458984375,-2.119403601,0
5.034,-2118.631591797,-1.004788160,0
5.036,-2109.715332031,6.153262615,0
5.038,-2112.679199219,2.480529785,0
5.040,-2117.776855469,-2.035473585,0
5.042,-2113.281250000,1.913457513,0
5.044,-2109.078857422,4.756639481,0
5.046,-2112.770996094,0.827922523,0
5.048,-2114.541992188,-0.733425498,0
5.050,-2111.106689453,2.101294994,0
5.052,-2113.470214844,-0.203807265,0
5.054,-2115.256347656,-1.547689915,0
5.056,-2112.716796875,0.771340609,0
5.058,-2114.379638672,-0.693441808,0
5.060,-2111.209716797,1.926143646,0
5.062,-2110.253417969,2.242014885,0
5.064,-2113.837402344,-1.043929815,0
5.066,-2110.041992188,2.140067577,0
5.068,-2107.374511719,3.739116430,0
5.070,-2110.094726563,0.792624891,0
5.072,-2110.184326172,0.546638072,0
5.074,-2110.105224609,0.486662805,0
5.076,-2107.476318359,2.423374176,0
5.078,-2102.307128906,5.905068874,0
5.080,-2095.288818359,10.051476479,0
5.082,-2092.541992188,9.954094887,0
5.084,-2091.622558594,8.456995964,0
5.086,-2085.584960938,11.273452759,0
5.088,-2081.648925781,11.829478264,0
5.090,-2083.083984375,8.084408760,0
5.092,-2081.881347656,7.223273754,0
5.094,-2076.936035156,9.464331627,0
5.096,-2079.473388672,5.387482643,0
5.098,-2083.244873047,1.256890178,0
5.100,-2080.422607422,3.172635317,0
5.102,-2076.140625000,5.797971725,0
5.104,-2078.455810547,2.708769560,0
5.106,-2084.096923828,-2.280643702,0
5.108,-2089.223144531,-5.760890484,0
5.110,-2090.596923828,-5.549106121,0
5.112,-2082.556152344,1.937997222,0
5.114,-2074.044433594,8.127442360,0
5.116,-2061.818359375,15.830317497,0
5.118,-2036.171142578,32.259914398,0
5.120,-2021.915771484,36.178119659,0
5.122,-2015.082397461,33.452892303,0
5.124,-2007.750244141,31.721345901,0
5.126,-2008.033813477,24.451242447,0
5.128,-2004.607910156,21.681983948,0
5.130,-2015.718139648,8.222359657,0
5.132,-2039.175048828,-11.848976135,0
5.134,-2046.688476563,-15.059448242,0
5.136,-2052.575683594,-16.291574478,0
5.138,-2062.360595703,-20.281581879,0
5.140,-2064.745117188,-17.628801346,0
5.142,-2058.118408203,-8.557107925,0
5.144,-2054.432373047,-3.788637877,0
5.146,-2052.558837891,-1.489543676,0
5.148,-2052.798828125,-1.345026851,0
5.150,-2051.115234375,0.263260484,0
5.152,-2049.450195313,1.499838710,0
5.154,-2053.815185547,-2.228429079,0
5.156,-2062.102539063,-8.178890228,0
5.158,-2068.022460938,-10.965551376,0
5.160,-2075.284667969,-14.177003860,0
5.162,-2086.520263672,-19.765035629,0
5.164,-2089.917968750,-18.015233994,0
5.166,-2088.971679688,-13.275848389,0
5.168,-2088.481445313,-9.944126129,0
5.170,-2090.875976563,-9.596567154,0
5.172,-2097.019775391,-12.242453575,0
5.174,-2101.989990234,-13.387419701,0
5.176,-2102.719726563,-10.979814529,0
5.178,-2104.727050781,-10.101053238,0
5.180,-2104.654785156,-7.800067902,0
5.182,-2103.654785156,-5.288826466,0
5.184,-2105.010986328,-5.168264389,0
5.186,-2101.013183594,-0.910453022,0
5.188,-2100.595947266,-0.383541018,0
5.190,-2106.818115234,-5.137756824,0
5.192,-2102.264648438,-0.454461902,0
5.194,-2110.291015625,-6.596043110,0
5.196,-2110.963867188,-5.653460979,0
5.198,-2100.841308594,3.475767612,0
5.200,-2105.486083984,-0.909079015,0
5.202,-2104.098144531,0.372377098,0
5.204,-2099.550781250,3.826486111,0
5.206,-2102.046142578,1.035314083,0
5.208,-2105.579589844,-1.942991853,0
5.210,-2101.265869141,1.843832850,0
5.212,-2097.052001953,4.711530209,0
5.214,-2103.364501953,-1.245137572,0
5.216,-2101.635009766,0.376544565,0
5.218,-2098.970947266,2.365064621,0
5.220,-2103.402832031,-1.607521892,0
5.222,-2101.205810547,0.458372980,0
5.224,-2098.921875000,2.132841110,0
5.226,-2098.561279297,1.939411759,0
5.228,-2097.943359375,1.989030004,0
5.230,-2095.311767578,3.593711138,0
5.232,-2110.973876953,-9.386394501,0
5.234,-2129.538330078,-21.739248276,0
5.236,-2151.821533203,-34.239303589,0
5.238,-2231.410888672,-88.532173157,0
5.240,-2342.728027344,-155.436264038,0
5.242,-2442.376708984,-198.396896362,0
5.244,-2526.852050781,-220.008895874,0
5.246,-2565.917968750,-201.500045776,0
5.248,-2542.896484375,-138.814895630,0
5.250,-2514.885009766,-86.179351807,0
5.252,-2508.594970703,-62.135299683,0
5.254,-2428.016601563,14.344470024,0
5.256,-2274.185791016,130.801345825,0
5.258,-2119.200195313,222.275848389,0
5.260,-1854.158935547,379.019439697,0
5.262,-1464.453002930,597.889770508,0
5.264,-1047.527832031,789.290222168,0
5.266,-497.073547363,1042.010009766,0
5.268,86.578239441,1264.387207031,0
5.270,445.132812500,1262.271606445,0
5.272,507.711944580,1030.426147461,0
5.274,334.148101807,666.439819336,0
5.276,102.822525024,338.417785645,0
5.278,-241.097518921,-4.279495239,0
5.280,-683.201354980,-347.182495117,0
5.282,-938.205993652,-468.361724854,0
5.284,-1096.298461914,-487.235778809,0
5.286,-1340.456909180,-568.854858398,0
5.288,-1645.482055664,-679.675537109,0
5.290,-1921.596435547,-743.382568359,0
5.292,-2113.295654297,-727.276428223,0
5.294,-2205.510498047,-637.373840332,0
5.296,-2219.385253906,-506.519989014,0
5.298,-2219.195800781,-393.807678223,0
5.300,-2217.165771484,-304.711853027,0
5.302,-2212.229736328,-233.156066895,0
5.304,-2200.986572266,-172.596649170,0
5.306,-2176.977050781,-115.566123962,0
5.308,-2172.560058594,-86.448326111,0
5.310,-2178.020996094,-71.483955383,0
5.312,-2171.849121094,-50.797641754,0
5.314,-2158.874755859,-29.417743683,0
5.316,-2142.207519531,-9.916874886,0
5.318,-2118.468505859,10.750379562,0
5.320,-2108.665283203,15.985835075,0
5.322,-2108.983886719,12.185461044,0
5.324,-2098.678466797,17.492767334,0
5.326,-2088.292968750,21.682691574,0
5.328,-2086.296875000,18.416589737,0
5.330,-2089.113769531,12.133093834,0
5.332,-2082.185546875,14.825203896,0
5.334,-2078.966552734,14.034201622,0
5.336,-2076.823486328,12.582183838,0
5.338,-2072.816894531,12.902170181,0
5.340,-2071.067626953,11.395409584,0
5.342,-2072.059570313,8.091407776,0
5.344,-2075.829101563,3.361477375,0
5.346,-2077.225585938,1.528420210,0
5.348,-2076.120849609,2.047973633,0
5.350,-2067.863037109,8.015468597,0
5.352,-2064.243896484,9.049078941,0
5.354,-2063.973876953,7.247983456,0
5.356,-2059.427246094,9.173492432,0
5.358,-2060.599853516,6.222737789,0
5.360,-2066.025146484,0.620353341,0
5.362,-2063.180175781,2.695163965,0
5.364,-2056.750732422,7.096752644,0
5.366,-2052.843750000,8.558341026,0
5.368,-2054.947753906,5.020010948,0
5.370,-2053.337890625,5.156625271,0
5.372,-2057.287841797,0.938455999,0
5.374,-2060.380126953,-1.675251007,0
5.376,-2049.312011719,7.305462360,0
5.378,-2044.439575195,9.471626282,0
5.380,-2048.582031250,4.144874096,0
5.382,-2045.935302734,5.282248020,0
5.384,-2045.078857422,4.774490833,0
5.386,-2046.691528320,2.459144831,0
5.388,-2044.844116211,3.349507093,0
5.390,-2043.497314453,3.652686834,0
5.392,-2041.149536133,4.666966915,0
5.394,-2041.231567383,3.566012383,0
5.396,-2043.316162109,1.152219296,0
5.398,-2039.767822266,3.655887842,0
5.400,-2032.577758789,8.435697556,0
5.402,-2035.172973633,4.542469978,0
5.404,-2040.356567383,-0.498632431,0
5.406,-2038.202270508,1.287747622,0
5.408,-2034.715698242,3.713260889,0
5.410,-2031.218994141,5.607670307,0
5.412,-2029.299194336,5.854685307,0
5.414,-2030.769897461,3.409718275,0
5.416,-2025.245239258,6.948819160,0
5.418,-2019.671508789,9.739706039,0
5.420,-2020.582885742,6.866334915,0
5.422,-2018.421508789,7.021480560,0
5.424,-2017.301147461,6.332481384,0
5.426,-2017.327880859,4.904396534,0
5.428,-2012.706909180,7.408524990,0
5.430,-2005.830932617,11.109980583,0
5.432,-2006.856811523,7.843161106,0
5.434,-2005.743164063,6.966270924,0
5.436,-1997.802246094,11.594367027,0
5.438,-1996.344970703,10.151137352,0
5.440,-1993.492309570,10.113882065,0
5.442,-1994.961791992,6.723340034,0
5.444,-1994.665405273,5.459736824,0
5.446,-1986.447753906,10.637791634,0
5.448,-1984.075439453,10.118871689,0
5.450,-1983.538208008,8.288022041,0
5.452,-1980.090576172,9.127545357,0
5.454,-1976.096557617,10.205517769,0
5.456,-1973.977661133,9.585605621,0
5.458,-1972.778320313,8.388163567,0
5.460,-1966.641235352,11.297276497,0
5.462,-1962.839965820,11.743170738,0
5.464,-1959.567871094,11.678359032,0
5.466,-1950.571533203,16.080133438,0
5.468,-1950.432495117,12.614733696,0
5.470,-1950.912109375,9.438312531,0
5.472,-1942.516723633,13.870456696,0
5.474,-1940.781982422,12.137185097,0
5.476,-1936.716796875,12.601683617,0
5.478,-1928.957763672,15.835927010,0
5.480,-1923.559326172,16.515380859,0
5.482,-1916.945312500,17.989328384,0
5.484,-1914.204223633,16.123409271,0
5.486,-1906.009277344,18.914016724,0
5.488,-1894.639526367,23.553743362,0
5.490,-1891.039672852,21.119249344,0
5.492,-1885.800537109,20.500635147,0
5.494,-1883.592041016,17.662488937,0
5.496,-1873.979125977,21.213882446,0
5.498,-1864.330322266,24.003988266,0
5.500,-1855.327148438,25.671979904,0
5.502,-1843.654052734,29.045774460,0
5.504,-1835.385742188,29.021713257,0
5.506,-1827.660156250,28.580833435,0
5.508,-1816.998901367,30.521194458,0
5.510,-1807.310791016,31.273546219,0
5.512,-1799.888549805,30.096330643,0
5.514,-1791.217285156,30.152141571,0
5.516,-1782.406250000,30.304340363,0
5.518,-1764.029663086,37.862396240,0
5.520,-1749.957275391,40.393218994,0
5.522,-1746.380371094,34.198520660,0
5.524,-1734.408935547,35.909507751,0
5.526,-1719.410034180,39.594936371,0
5.528,-1709.786132813,38.280780792,0
5.530,-1700.353271484,37.110176086,0
5.532,-1687.907958984,38.542640686,0
5.534,-1677.706054688,37.911930084,0
5.536,-1666.271118164,38.380413055,0
5.538,-1658.985229492,35.517799377,0
5.540,-1648.125122070,36.071189880,0
5.542,-1645.382690430,30.187965393,0
5.544,-1647.344482422,21.953416824,0
5.546,-1643.767578125,19.856725693,0
5.548,-1644.253295898,15.066085815,0
5.550,-1646.976806641,9.599667549,0
5.552,-1649.795410156,5.274072647,0
5.554,-1659.316406250,-3.303133011,0
5.556,-1666.870483398,-8.444310188,0
5.558,-1676.408569336,-13.986148834,0
5.560,-1692.636230469,-23.499305725,0
5.562,-1701.845703125,-25.439895630,0
5.564,-1713.608154297,-28.934795380,0
5.566,-1732.613403320,-37.286224365,0
5.568,-1746.149047852,-39.527595520,0
5.570,-1759.390502930,-41.041996002,0
5.572,-1776.198974609,-44.994270325,0
5.574,-1791.318725586,-46.754692078,0
5.576,-1804.348266602,-46.498321533,0
5.578,-1817.164184570,-46.132633209,0
5.580,-1832.605957031,-47.890640259,0
5.582,-1841.245605469,-43.967414856,0
5.584,-1851.777954102,-42.388141632,0
5.586,-1857.540527344,-37.450115204,0
5.588,-1870.434204102,-39.155719757,0
5.590,-1882.276977539,-39.664997101,0
5.592,-1886.541137695,-34.166675568,0
5.594,-1901.311279297,-38.061428070,0
5.596,-1907.042480469,-34.060558319,0
5.598,-1912.135253906,-30.452146530,0
5.600,-1923.313354492,-32.378639221,0
5.602,-1927.317138672,-28.297115326,0
5.604,-1932.720947266,-26.211454391,0
5.606,-1940.837890625,-26.699522018,0
5.608,-1946.298828125,-25.013416290,0
5.610,-1951.669067383,-23.631402969,0
5.612,-1955.757934570,-21.559888840,0
5.614,-1957.231323242,-17.914600372,0
5.616,-1964.399536133,-19.508577347,0
5.618,-1968.140991211,-18.083175659,0
5.620,-1968.442016602,-14.298575401,0
5.622,-1974.132690430,-15.546980858,0
5.624,-1983.169921875,-19.120874405,0
5.626,-1985.889770508,-16.986927032,0
5.628,-1986.566894531,-13.738586426,0
5.630,-1986.790527344,-10.859336853,0
5.632,-1989.957275391,-10.909008026,0
5.634,-1989.314453125,-7.984748840,0
5.636,-1992.485351563,-8.676489830,0
5.638,-1997.664794922,-10.776681900,0
5.640,-1994.489013672,-5.911791801,0
5.642,-1995.777832031,-5.600352764,0
5.644,-2002.001464844,-9.196373940,0
5.646,-2003.860595703,-8.598595619,0
5.648,-2002.966186523,-5.992081642,0
5.650,-2000.461669922,-2.712460995,0
5.652,-2002.258666992,-3.507325411,0
5.654,-2004.483642578,-4.458445549,0
5.656,-2006.615234375,-5.125432491,0
5.658,-2009.907714844,-6.547188282,0
5.660,-2016.113647461,-9.919005394,0
5.662,-2013.518432617,-5.696225643,0
5.664,-2009.005615234,-0.920422912,0
5.666,-2011.725952148,-2.831618547,0
5.668,-2013.985107422,-3.959410191,0
5.670,-2013.460327148,-2.671346188,0
5.672,-2016.473754883,-4.421444893,0
5.674,-2019.416259766,-5.727425575,0
5.676,-2013.774414063,-0.066647746,0
5.678,-2014.205322266,-0.386901081,0
5.680,-2019.317626953,-4.277170658,0
5.682,-2021.113403320,-4.723297596,0
5.684,-2022.210083008,-4.526582241,0
5.686,-2024.568237305,-5.354742527,0
5.688,-2023.192138672,-3.094491005,0
5.690,-2021.357543945,-0.979916692,0
5.692,-2025.018310547,-3.609333992,0
5.694,-2028.466796875,-5.489352703,0
5.696,-2024.067504883,-0.847777367,0
5.698,-2028.691894531,-4.256150246,0
5.700,-2030.903076172,-5.030030251,0
5.702,-2029.157470703,-2.554501534,0
5.704,-2030.386718750,-2.942898273,0
5.706,-2026.282104492,0.903522849,0
5.708,-2032.739868164,-4.319887638,0
5.710,-2036.411254883,-6.215331078,0
5.712,-2029.099487305,0.852752388,0
5.714,-2026.082885742,3.009401083,0
5.716,-2024.467895508,3.596781731,0
5.718,-2025.846313477,1.725363135,0
5.720,-2027.332153320,0.186239779,0
5.722,-2026.847045898,0.522137523,0
5.724,-2029.538574219,-1.687271953,0
5.726,-2029.474609375,-1.262508035,0
5.728,-2030.083251953,-1.455370307,0
5.730,-2030.382934570,-1.364976764,0
5.732,-2027.704101563,1.021847963,0
5.734,-2024.813720703,3.042775154,0
5.736,-2022.030761719,4.531101227,0
5.738,-2017.299926758,7.203686237,0
5.740,-2018.426879883,4.726273537,0
5.742,-2027.884277344,-3.679742813,0
5.744,-2025.496582031,-1.004912972,0
5.746,-2022.263671875,1.732821941,0
5.748,-2025.424438477,-1.110558867,0
5.750,-2024.098999023,0.167159408,0
5.752,-2022.320800781,1.513031363,0
5.754,-2023.233886719,0.466598749,0
5.756,-2022.458129883,0.966279209,0
5.758,-2021.478515625,1.513448715,0
5.760,-2025.496459961,-1.947919965,0
5.762,-2023.244018555,0.236864865,0
5.764,-2018.260620117,4.060155869,0
5.766,-2022.479980469,-0.123901226,0
5.768,-2026.095947266,-2.908696175,0
5.770,-2024.055664063,-0.675460339,0
5.772,-2023.037231445,0.266784519,0
5.774,-2020.752075195,1.984815240,0
5.776,-2022.456787109,0.217881203,0
5.778,-2021.319213867,1.054233432,0
5.780,-2019.624633789,2.137930870,0
5.782,-2023.336791992,-1.224388123,0
5.784,-2021.351806641,0.591493189,0
5.786,-2019.950561523,1.549922585,0
5.788,-2022.617431641,-0.868746340,0
5.790,-2018.642211914,2.416140079,0
5.792,-2022.049072266,-0.770568192,0
5.794,-2019.056274414,1.728434801,0
5.796,-2012.024658203,6.813209534,0
5.798,-2017.059204102,1.383459926,0
5.800,-2018.029785156,0.321046293,0
5.802,-2015.474853516,2.236927748,0
5.804,-2017.762451172,-0.039446600,0
5.806,-2015.455322266,1.763741732,0
5.808,-2018.019775391,-0.622749031,0
5.810,-2019.801391602,-1.870035768,0
5.812,-2016.208618164,1.339900136,0
5.814,-2013.355468750,3.261195183,0
5.816,-2014.966064453,1.283780694,0
5.818,-2016.482910156,-0.181333408,0
5.820,-2014.384399414,1.491154432,0
5.822,-2008.415649414,5.802094936,0
5.824,-2013.092285156,0.875330746,0
5.826,-2023.854980469,-7.690093994,0
5.828,-2016.769165039,-0.469992042,0
5.830,-2006.290649414,7.784317017,0
5.832,-2010.560546875,2.733412981,0
5.834,-2013.688110352,-0.306563556,0
5.836,-2012.880004883,0.390051275,0
5.838,-2013.560668945,-0.225964800,0
5.840,-2013.338500977,-0.002998373,0
5.842,-2011.491455078,1.434299469,0
5.844,-2009.044921875,3.018309116,0
5.846,-2009.950805664,1.643032789,0
5.848,-2008.920043945,2.079536200,0
5.850,-2008.562988281,1.895159245,0
5.852,-2013.399658203,-2.287822247,0
5.854,-2012.677856445,-1.217967629,0
5.856,-2010.442749023,0.791076303,0
5.858,-2011.515991211,-0.219453454,0
5.860,-2007.465576172,2.979558468,0
5.862,-2006.834228516,2.808422089,0
5.864,-2015.160888672,-4.291867733,0
5.866,-2011.597656250,-0.566687107,0
5.868,-2009.179809570,1.439718008,0
5.870,-2013.769287109,-2.449760914,0
5.872,-2007.992553711,2.587624550,0
5.874,-2008.989624023,1.237058878,0
5.876,-2015.399658203,-4.023382664,0
5.878,-2013.471923828,-1.629869699,0
5.880,-2006.343872070,4.276306152,0
5.882,-2006.859130859,2.925188303,0
5.884,-2005.497314453,3.334334850,0
5.886,-2005.642578125,2.480367899,0
5.888,-2001.801147461,4.916824341,0
5.890,-2006.379272461,0.263408393,0
5.892,-2009.312988281,-2.076858044,0
5.894,-2009.187500000,-1.517674804,0
5.896,-2008.690307617,-0.793681264,0
5.898,-2011.727539063,-2.979607582,0
5.900,-2006.277343750,1.921517015,0
5.902,-2002.996215820,4.046490192,0
5.904,-2007.754028320,-0.553246081,0
5.906,-2005.636474609,1.216687679,0
5.908,-2001.286010742,4.329956532,0
5.910,-2001.182739258,3.447997332,0
5.912,-2003.541381836,0.847226799,0
5.914,-2001.467651367,2.271844387,0
5.916,-2000.527099609,2.498473644,0
5.918,-2002.148437500,0.682228327,0
5.920,-2001.762817383,0.830522180,0
5.922,-1999.616455078,2.315410376,0
5.924,-1999.531738281,1.866728425,0
5.926,-1998.152709961,2.524398327,0
5.928,-1997.378295898,2.565677643,0
5.930,-1998.910522461,0.803817868,0
5.932,-1998.010498047,1.325201750,0
5.934,-1998.612304688,0.562590599,0
5.936,-1995.388793945,2.944725275,0
5.938,-1986.003662109,9.589837074,0
5.940,-1985.136230469,8.133306503,0
5.942,-1992.389404297,0.684548974,0
5.944,-1999.447509766,-4.957159042,0
5.946,-1997.612915039,-2.428631544,0
5.948,-1997.238403320,-1.597655058,0
5.950,-1999.833984375,-3.261361361,0
5.952,-1997.574340820,-0.779056609,0
5.954,-1996.682373047,0.087736413,0
5.956,-1994.955566406,1.411317110,0
5.958,-1994.487182617,1.461994529,0
5.960,-1996.576904297,-0.488232017,0
5.962,-1995.494995117,0.461763620,0
5.964,-1993.182495117,2.157756329,0
5.966,-1990.016357422,4.140726089,0
5.968,-1994.807006836,-0.505549908,0
5.970,-1996.264770508,-1.526991129,0
5.972,-1993.215820313,1.183766246,0
5.974,-1995.954589844,-1.209469676,0
5.976,-1996.098754883,-1.052801490,0
5.978,-1991.580810547,2.695068598,0
5.980,-1996.679321289,-1.869299889,0
5.982,-1992.352539063,1.911344886,0
5.984,-1991.473632813,2.170166254,0
5.986,-1999.682006836,-4.696305752,0
5.988,-1996.918701172,-1.503384590,0
5.990,-1991.967407227,2.681675196,0
5.992,-1992.783935547,1.450614572,0
5.994,-1990.841674805,2.638870955,0
5.996,-1991.718994141,1.370102644,0
5.998,-1990.663940430,1.886146188,0
6.000,-1989.952148438,2.020576715,0
6.002,-1994.104980469,-1.658333540,0
6.004,-1991.113403320,1.036965609,0
6.006,-1990.299926758,1.439198971,0
6.008,-1996.614868164,-3.792214394,0
6.010,-1995.339721680,-1.957667828,0
6.012,-1992.639648438,0.577412188,0
6.014,-1991.394897461,1.417218685,0
6.016,-1989.418823242,2.639161587,0
6.018,-1989.367797852,2.092324734,0
6.020,-1992.053588867,-0.461512148,0
6.022,-1992.757080078,-0.906156242,0
6.024,-1991.583740234,0.207806259,0
6.026,-1992.483032227,-0.537810206,0
6.028,-1991.036499023,0.706808507,0
6.030,-1994.265258789,-1.961502433,0
6.032,-1997.390869141,-3.956561089,0
6.034,-1988.356933594,3.948994637,0
6.036,-1984.910888672,5.751636505,0
6.038,-1990.657958984,0.003518684,0
6.040,-1985.965820313,3.652142286,0
6.042,-1986.330932617,2.556534529,0
6.044,-1989.622070313,-0.571356654,0
6.046,-1989.689331055,-0.496707857,0
6.048,-1994.616455078,-4.218477726,0
6.050,-1992.663452148,-1.761982799,0
6.052,-1983.624023438,5.660161495,0
6.054,-1986.861694336,1.884112597,0
6.056,-1985.932861328,2.187828302,0
6.058,-1980.682373047,5.785294533,0
6.060,-1980.722412109,4.468474865,0
6.062,-1977.602539063,5.901958466,0
6.064,-1970.637573242,10.007512093,0
6.066,-1971.403808594,7.187507629,0
6.068,-1969.243041992,7.270828247,0
6.070,-1966.996704102,7.402075291,0
6.072,-1964.090087891,8.017836571,0
6.074,-1960.543334961,8.994558334,0
6.076,-1965.222412109,3.356456280,0
6.078,-1967.801635742,0.604439199,0
6.080,-1972.085693359,-2.861860037,0
6.082,-1969.279174805,-0.043046888,0
6.084,-1965.706054688,2.745582819,0
6.086,-1976.989013672,-6.640113354,0
6.088,-1984.797973633,-11.237996101,0
6.090,-1974.557128906,-0.775525630,0
6.092,-1963.192871094,8.235578537,0
6.094,-1956.720825195,11.439110756,0
6.096,-1937.233276367,24.053737640,0
6.098,-1919.717285156,32.331623077,0
6.100,-1907.510375977,34.640567780,0
6.102,-1895.972656250,35.916007996,0
6.104,-1898.956298828,25.613765717,0
6.106,-1901.755493164,17.744369507,0
6.108,-1906.436401367,10.160367012,0
6.110,-1925.826416016,-7.178531170,0
6.112,-1934.419311523,-12.266508102,0
6.114,-1941.462402344,-15.018371582,0
6.116,-1948.387573242,-17.066968918,0
6.118,-1946.277709961,-11.633191109,0
6.120,-1944.462890625,-7.636403084,0
6.122,-1942.031738281,-4.048435688,0
6.124,-1941.097290039,-2.421960831,0
6.126,-1943.736083984,-3.936149836,0
6.128,-1939.936889648,-0.106481999,0
6.130,-1939.819458008,0.008516487,0
6.132,-1944.818725586,-3.881673098,0
6.134,-1947.068725586,-4.768991947,0
6.136,-1956.054565430,-10.698035240,0
6.138,-1971.343994141,-20.212261200,0
6.140,-1979.147827148,-21.789941788,0
6.142,-1982.356689453,-19.443300247,0
6.144,-1981.553100586,-14.497329712,0
6.146,-1982.466918945,-11.986352921,0
6.148,-1985.712158203,-11.846649170,0
6.150,-1987.757568359,-10.804766655,0
6.152,-1991.374511719,-11.216767311,0
6.154,-1999.288818359,-14.879521370,0
6.156,-1997.177978516,-9.931088448,0
6.158,-1995.925048828,-6.749594688,0
6.160,-1997.741699219,-6.662549973,0
6.162,-1996.084716797,-3.893143892,0
6.164,-1993.958007813,-1.373897076,0
6.166,-1994.389404297,-1.404070616,0
6.168,-1995.676757813,-2.093273401,0
6.170,-1992.551757813,0.802447498,0
6.172,-1991.915527344,1.118937850,0
6.174,-1992.744628906,0.225425497,0
6.176,-1992.337524414,0.491959006,0
6.178,-1994.511962891,-1.308566928,0
6.180,-1995.879028320,-2.081034899,0
6.182,-1992.399536133,1.087638617,0
6.184,-1997.355712891,-3.008765936,0
6.186,-1997.631347656,-2.554531097,0
6.188,-1991.443847656,2.825605869,0
6.190,-1993.266235352,0.780297875,0
6.192,-1994.353759766,-0.238956675,0
6.194,-1992.938964844,0.914510131,0
6.196,-1995.488647461,-1.271784544,0
6.198,-1993.182983398,0.804137647,0
6.200,-1994.612304688,-0.486267418,0
6.202,-1995.723999023,-1.242790341,0
6.204,-1994.426147461,0.042787574,0
6.206,-1996.046020508,-1.226568103,0
6.208,-1999.026855469,-3.272439957,0
6.210,-2010.801391602,-11.703027725,0
6.212,-2027.613159180,-22.177869797,0
6.214,-2046.943481445,-32.283767700,0
6.216,-2123.439453125,-84.605270386,0
6.218,-2231.791748047,-150.076202393,0
6.220,-2325.150146484,-189.335601807,0
6.222,-2413.924316406,-216.304702759,0
6.224,-2463.665039063,-206.921539307,0
6.226,-2446.840087891,-147.851104736,0
6.228,-2428.046875000,-100.377059937,0
6.230,-2428.860107422,-78.702415466,0
6.232,-2365.310058594,-11.785085678,0
6.234,-2236.310058594,91.165985107,0
6.236,-2105.623291016,172.549789429,0
6.238,-1856.668945313,327.832397461,0
6.240,-1487.397949219,542.184509277,0
6.242,-1083.232788086,736.040161133,0
6.244,-526.159667969,1005.741699219,0
6.246,98.012275696,1267.694091797,0
6.248,517.866577148,1312.520629883,0
6.250,620.960327148,1101.019165039,0
6.252,461.500640869,732.314514160,0
6.254,240.468872070,397.659179688,0
6.256,-30.533758163,98.509368896,0
6.258,-393.167968750,-205.427780151,0
6.260,-657.190002441,-365.122863770,0
6.262,-826.334594727,-415.535980225,0
6.264,-1111.073486328,-544.651123047,0
6.266,-1453.836791992,-690.202270508,0
6.268,-1725.682983398,-748.250183105,0
6.270,-1929.766357422,-740.694274902,0
6.272,-2041.541870117,-663.023498535,0
6.274,-2076.031005859,-542.502746582,0
6.276,-2085.625488281,-429.403320313,0
6.278,-2084.286621094,-332.934753418,0
6.280,-2078.602294922,-254.524795532,0
6.282,-2059.783935547,-183.324951172,0
6.284,-2043.767944336,-130.127456665,0
6.286,-2055.665527344,-110.462486267,0
6.288,-2066.022949219,-93.969833374,0
6.290,-2060.118408203,-68.494293213,0
6.292,-2044.949829102,-41.475044250,0
6.294,-2028.339721680,-19.339082718,0
6.296,-2018.732910156,-7.569431782,0
6.298,-2011.462036133,-0.232242614,0
6.300,-1996.651245117,11.338671684,0
6.302,-1993.226928711,11.482192039,0
6.304,-1992.577270508,9.435832024,0
6.306,-1985.112915039,13.144368172,0
6.308,-1986.694458008,8.993183136,0
6.310,-1987.706420898,6.207596302,0
6.312,-1984.634643555,7.217130661,0
6.314,-1985.207153320,5.167964935,0
6.316,-1985.465942383,3.818244457,0
6.318,-1985.626831055,2.844578266,0
6.320,-1981.031372070,5.786639214,0
6.322,-1978.471435547,6.491673946,0
6.324,-1980.843505859,3.204063416,0
6.326,-1978.249267578,4.509744644,0
6.328,-1978.143920898,3.589494705,0
6.330,-1972.908325195,6.863817215,0
6.332,-1970.650512695,7.094580650,0
6.334,-1971.607055664,4.773938656,0
6.336,-1971.056274414,4.141354561,0
6.338,-1972.939086914,1.756642699,0
6.340,-1967.814575195,5.351912498,0
6.342,-1969.744506836,2.661507607,0
6.344,-1979.428710938,-5.461954117,0
6.346,-1975.175170898,-0.939912498,0
6.348,-1965.156127930,7.061489582,0
6.350,-1965.425415039,5.282740116,0
6.352,-1967.600463867,2.417047739,0
6.354,-1968.609619141,1.095024228,0
6.356,-1966.749633789,2.298282385,0
6.358,-1960.367675781,6.751194000,0
6.360,-1965.133544922,1.544185519,0
6.362,-1963.301513672,2.625832319,0
6.364,-1961.132446289,3.729342222,0
6.366,-1961.087524414,2.935528517,0
6.368,-1961.194213867,2.200194597,0
6.370,-1964.990966797,-1.241734385,0
6.372,-1963.561523438,0.145913228,0
6.374,-1957.765136719,4.621777058,0
6.376,-1959.607177734,2.161996365,0
6.378,-1957.635009766,3.215448380,0
6.380,-1960.354125977,0.385955095,0
6.382,-1958.276489258,1.916140079,0
6.384,-1953.731811523,5.025055408,0
6.386,-1953.908813477,3.770655632,0
6.388,-1949.231201172,6.570754051,0
6.390,-1948.530639648,5.655348301,0
6.392,-1951.624633789,1.992183328,0
6.394,-1950.655395508,2.303335190,0
6.396,-1950.497802734,1.913948655,0
6.398,-1948.463134766,3.071112394,0
6.400,-1947.037719727,3.497298956,0
6.402,-1945.719360352,3.745438576,0
6.404,-1943.055053711,4.985323906,0
6.406,-1939.535034180,6.615191936,0
6.408,-1937.451538086,6.765540600,0
6.410,-1939.104980469,3.975984335,0
6.412,-1936.678588867,4.979632378,0
6.414,-1934.362060547,5.674633503,0
6.416,-1934.683593750,4.163537025,0
6.418,-1931.966796875,5.351300240,0
6.420,-1932.055053711,4.093374729,0
6.422,-1928.938720703,5.607528687,0
6.424,-1929.463500977,3.953174829,0
6.426,-1927.480346680,4.617116451,0
6.428,-1923.942138672,6.342910290,0
6.430,-1920.157104492,7.877233982,0
6.432,-1915.421630859,9.809711456,0
6.434,-1914.469970703,8.369819641,0
6.436,-1915.528564453,5.686444283,0
6.438,-1911.254150391,7.747233868,0
6.440,-1911.984741211,5.457359314,0
6.442,-1914.261596680,2.473711252,0
6.444,-1909.475708008,5.646231174,0
6.446,-1905.525512695,7.463833332,0
6.448,-1897.843627930,11.779777527,0
6.450,-1895.631347656,10.882649422,0
6.452,-1897.868041992,6.724510193,0
6.454,-1893.872558594,8.337680817,0
6.456,-1888.398681641,10.742133141,0
6.458,-1886.911987305,9.511193275,0
6.460,-1891.700439453,3.673187971,0
6.462,-1878.770507813,12.913405418,0
6.464,-1868.229614258,18.241973877,0
6.466,-1870.457031250,12.455635071,0
6.468,-1866.447143555,12.806302071,0
6.470,-1861.018798828,14.182371140,0
6.472,-1851.550170898,18.394998550,0
6.474,-1842.998657227,20.958127975,0
6.476,-1840.821044922,17.994197845,0
6.478,-1838.233520508,16.007783890,0
6.480,-1830.080078125,18.791826248,0
6.482,-1821.793945313,21.060333252,0
6.484,-1815.357910156,21.385858536,0
6.486,-1809.238525391,21.392633438,0
6.488,-1802.947265625,21.531654358,0
6.490,-1792.374511719,24.969738007,0
6.492,-1780.942138672,28.312393188,0
6.494,-1769.147583008,31.193883896,0
6.496,-1762.205444336,29.661010742,0
6.498,-1753.223144531,30.055524826,0
6.500,-1737.842407227,35.338871002,0
6.502,-1727.773559570,35.316608429,0
6.504,-1721.562255859,32.299064636,0
6.506,-1711.575561523,32.888473511,0
