Time,Vin,RawSignal,Event
Verified data,Verified data,For Reference Only,For Reference Only
0.002,183.647537231,142.835113525,0
0.004,-1051.746826172,-849.757263184,0
0.006,3664.702148438,3007.387939453,0
0.008,-8369.059570313,-7020.422363281,0
0.010,14237.507812500,12122.400390625,0
0.012,-16024.452148438,-14108.363281250,0
0.014,6598.502441406,6622.374023438,0
0.016,-5445.383789063,-4216.677246094,0
0.018,-718.505187988,396.818389893,0
0.020,-1952.493896484,-651.124023438,0
0.022,-1771.019042969,-365.277954102,0
0.024,-1768.539794922,-282.173126221,0
0.026,-1766.421630859,-217.817687988,0
0.028,-1774.463623047,-175.666320801,0
0.030,-1778.324096680,-139.630126953,0
0.032,-1777.836181641,-108.220367432,0
0.034,-1781.676025391,-87.156768799,0
0.036,-1784.264160156,-69.800712585,0
0.038,-1786.971557617,-56.394477844,0
0.040,-1789.862304688,-46.110141754,0
0.042,-1789.254272461,-35.390041351,0
0.044,-1790.187133789,-28.250766754,0
0.046,-1790.877929688,-22.509834290,0
0.048,-1789.135253906,-16.152023315,0
0.050,-1786.176269531,-10.261054993,0
0.052,-1789.425292969,-10.507759094,0
0.054,-1786.751342773,-6.092871666,0
0.056,-1787.534179688,-5.347735882,0
0.058,-1786.807006836,-3.593733788,0
0.060,-1783.260253906,-0.036457520,0
0.062,-1791.443969727,-6.393462181,0
0.064,-1788.785522461,-2.904920340,0
0.066,-1782.100341797,2.940174103,0
0.068,-1784.575927734,0.361295670,0
0.070,-1780.419433594,3.513772964,0
0.072,-1779.643554688,3.336419344,0
0.074,-1781.798217773,0.919124782,0
0.076,-1781.201416016,1.178973436,0
0.078,-1782.477172852,-0.075197965,0
0.080,-1782.124877930,0.215493083,0
0.082,-1777.919067383,3.438723564,0
0.084,-1781.446533203,-0.069026604,0
0.086,-1780.388671875,0.769129157,0
0.088,-1777.257324219,3.033657312,0
0.090,-1776.208129883,3.175477266,0
0.092,-1775.539794922,2.989596605,0
0.094,-1775.095458984,2.670825481,0
0.096,-1773.124023438,3.610610962,0
0.098,-1775.104003906,1.268237948,0
0.100,-1774.509033203,1.449164629,0
0.102,-1775.810668945,0.114746407,0
0.104,-1775.596191406,0.255987853,0
0.106,-1772.807617188,2.367980480,0
0.108,-1768.673950195,5.056812763,0
0.110,-1763.910766602,7.637610435,0
0.112,-1763.196289063,6.496056080,0
0.114,-1765.448974609,3.300302267,0
0.116,-1765.130126953,2.814866543,0
0.118,-1766.014770508,1.501277566,0
0.120,-1763.420532227,3.185402393,0
0.122,-1768.023925781,-1.102916479,0
0.124,-1766.468383789,0.352078021,0
0.126,-1758.790527344,6.245383739,0
0.128,-1761.806030273,2.512107134,0
0.130,-1764.879516602,-0.436582148,0
0.132,-1759.300170898,3.999861240,0
0.134,-1759.922485352,2.626884937,0
0.136,-1762.855346680,-0.237981781,0
0.138,-1761.450439453,0.907619715,0
0.140,-1759.616699219,2.132150412,0
0.142,-1758.666992188,2.397007704,0
0.144,-1762.306518555,-0.966403484,0
0.146,-1763.328125000,-1.546241999,0
0.148,-1761.309448242,0.367497057,0
0.150,-1762.420898438,-0.578626633,0
0.152,-1758.078247070,2.927531719,0
0.154,-1757.896972656,2.417856693,0
0.156,-1757.746093750,1.997967601,0
0.158,-1751.014404297,6.789561272,0
0.160,-1754.806152344,2.331603527,0
0.162,-1755.726440430,1.097675562,0
0.164,-1748.744995117,6.283734322,0
0.166,-1751.166625977,3.003799200,0
0.168,-1750.251831055,3.047720194,0
0.170,-1747.388427734,4.597508907,0
0.172,-1750.010009766,1.536869645,0
0.174,-1749.307495117,1.741645575,0
0.176,-1741.967407227,7.063529015,0
0.178,-1737.434082031,9.019632339,0
0.180,-1742.276000977,3.249297857,0
0.182,-1738.815795898,5.218430042,0
0.184,-1737.952270508,4.730393410,0
0.186,-1741.279418945,1.091327906,0
0.188,-1738.343627930,3.132155657,0
0.190,-1741.205688477,0.210132435,0
0.192,-1743.606445313,-1.703833103,0
0.194,-1738.800659180,2.412586451,0
0.196,-1740.364501953,0.660121441,0
0.198,-1741.372070313,-0.270192206,0
0.200,-1741.412109375,-0.241335511,0
0.202,-1741.710571289,-0.419779241,0
0.204,-1739.120849609,1.687640548,0
0.206,-1736.573608398,3.293829918,0
0.208,-1732.432250977,5.782842636,0
0.210,-1734.131835938,3.175828695,0
0.212,-1737.655395508,-0.270512342,0
0.214,-1731.134399414,4.861497402,0
0.216,-1731.207641602,3.724129677,0
0.218,-1738.769042969,-2.984570503,0
0.220,-1737.010253906,-0.953356802,0
0.222,-1738.047607422,-1.548261762,0
0.224,-1734.343750000,1.676494837,0
0.226,-1729.529663086,5.048200130,0
0.228,-1735.760864258,-0.920059681,0
0.230,-1739.374389648,-3.526080847,0
0.232,-1735.411132813,0.339964747,0
0.234,-1737.829711914,-1.616698861,0
0.236,-1740.184814453,-3.089137316,0
0.238,-1741.039550781,-3.067398310,0
0.240,-1743.721191406,-4.471373081,0
0.242,-1746.263183594,-5.454823971,0
0.244,-1745.578613281,-3.710127831,0
0.246,-1744.694702148,-2.198154926,0
0.248,-1744.962890625,-1.918220758,0
0.250,-1744.851074219,-1.404921532,0
0.252,-1746.009643555,-1.993797064,0
0.254,-1746.486328125,-1.921509743,0
0.256,-1747.754882813,-2.481146574,0
0.258,-1747.309814453,-1.583527684,0
0.260,-1752.275878906,-5.094072819,0
0.262,-1766.427490234,-14.968688011,0
0.264,-1766.511108398,-11.707186699,0
0.266,-1763.732055664,-6.944027424,0
0.268,-1758.506103516,-1.336260438,0
0.270,-1738.098632813,14.832995415,0
0.272,-1722.559692383,23.622224808,0
0.274,-1710.461059570,27.782608032,0
0.276,-1699.307250977,30.283452988,0
0.278,-1694.319458008,27.432819366,0
0.280,-1690.204711914,24.536733627,0
0.282,-1688.944091797,20.064294815,0
0.284,-1689.890625000,14.869229317,0
0.286,-1695.551757813,7.161752701,0
0.288,-1696.316650391,4.975248337,0
0.290,-1693.268310547,6.240506649,0
0.292,-1695.198730469,3.352204561,0
0.294,-1688.730590820,7.637925148,0
0.296,-1677.050659180,15.024871826,0
0.298,-1678.530639648,10.534775734,0
0.300,-1679.955566406,7.085326672,0
0.302,-1674.909057617,9.435723305,0
0.304,-1683.425537109,0.715004563,0
0.306,-1692.624145508,-6.598276138,0
0.308,-1696.656250000,-8.267948151,0
0.310,-1707.002929688,-14.477918625,0
0.312,-1712.510131836,-15.543717384,0
0.314,-1710.006591797,-10.142307281,0
0.316,-1712.162231445,-9.564922333,0
0.318,-1714.562377930,-9.305993080,0
0.320,-1712.061767578,-5.293066978,0
0.322,-1712.552734375,-4.498640060,0
0.324,-1713.217285156,-4.015746117,0
0.326,-1708.375366211,0.642569423,0
0.328,-1707.397705078,1.260168791,0
0.330,-1711.775024414,-2.424436092,0
0.332,-1709.350585938,0.000014969,0
0.334,-1707.107666016,1.744516850,0
0.336,-1710.669555664,-1.413478494,0
0.338,-1713.402465820,-3.224968433,0
0.340,-1715.716064453,-4.307720661,0
0.342,-1712.135864258,-0.565867543,0
0.344,-1712.827880859,-0.978269935,0
0.346,-1718.698974609,-5.327242374,0
0.348,-1714.641235352,-0.987410128,0
0.350,-1714.347534180,-0.539526284,0
0.352,-1718.035522461,-3.288038254,0
0.354,-1710.204101563,3.533700705,0
0.356,-1706.846191406,5.360104561,0
0.358,-1717.856079102,-4.394286156,0
0.360,-1719.777465820,-4.912126064,0
0.362,-1716.715698242,-1.439096451,0
0.364,-1717.627319336,-1.828290343,0
0.366,-1718.144409180,-1.824214339,0
0.368,-1722.510498047,-4.814582348,0
0.370,-1718.859130859,-0.904769659,0
0.372,-1719.631591797,-1.304410458,0
0.374,-1721.644775391,-2.580339909,0
0.376,-1716.419677734,2.057008743,0
0.378,-1723.898315430,-4.216784477,0
0.380,-1735.142456055,-12.025033951,0
0.382,-1753.768676758,-23.839511871,0
0.384,-1793.899291992,-49.753921509,0
0.386,-1830.606323242,-67.246566772,0
0.388,-1838.546997070,-58.478134155,0
0.390,-1848.812866211,-53.466857910,0
0.392,-1862.323608398,-52.093090057,0
0.394,-1869.293701172,-45.937370300,0
0.396,-1890.580444336,-52.284729004,0
0.398,-1907.677368164,-53.962844849,0
0.400,-1924.559692383,-55.101127625,0
0.402,-1968.826782227,-77.285369873,0
0.404,-1973.420410156,-63.682800293,0
0.406,-1901.656005859,6.285579681,0
0.408,-1755.787963867,118.340164185,0
0.410,-1541.274291992,258.882965088,0
0.412,-1328.161499023,367.103027344,0
0.414,-1053.241577148,499.344757080,0
0.416,-672.998840332,684.114685059,0
0.418,-300.676544189,821.662536621,0
0.420,-58.172012329,827.674743652,0
0.422,57.780677795,733.922912598,0
0.424,155.585128784,646.890686035,0
0.426,136.744384766,488.476928711,0
0.428,-25.228895187,253.943984985,0
0.430,-122.368446350,121.957420349,0
0.432,-193.321838379,39.669292450,0
0.434,-337.592437744,-81.355506897,0
0.436,-500.285125732,-189.812805176,0
0.438,-669.455993652,-279.205902100,0
0.440,-851.816711426,-358.991577148,0
0.442,-1020.372558594,-410.309356689,0
0.444,-1172.702026367,-437.602264404,0
0.446,-1303.320434570,-441.943695068,0
0.448,-1402.018676758,-420.493804932,0
0.450,-1461.758422852,-373.510192871,0
0.452,-1508.767700195,-327.066436768,0
0.454,-1560.479614258,-294.601531982,0
0.456,-1589.304565430,-251.550643921,0
0.458,-1599.016845703,-203.201919556,0
0.460,-1611.597534180,-167.828720093,0
0.462,-1625.082031250,-141.019577026,0
0.464,-1638.253051758,-119.924468994,0
0.466,-1649.983886719,-102.397186279,0
0.468,-1657.339233398,-85.361976624,0
0.470,-1666.565063477,-73.567359924,0
0.472,-1671.955566406,-61.410835266,0
0.474,-1674.118164063,-49.445396423,0
0.476,-1683.495971680,-45.750778198,0
0.478,-1686.738769531,-38.105606079,0
0.480,-1689.100097656,-31.473886490,0
0.482,-1693.251953125,-27.708549500,0
0.484,-1693.957397461,-22.099521637,0
0.486,-1694.733642578,-17.791986465,0
0.488,-1697.905883789,-16.305326462,0
0.490,-1701.154418945,-15.208362579,0
0.492,-1704.931884766,-14.766515732,0
0.494,-1703.032836914,-10.007951736,0
0.496,-1702.782958984,-7.589471817,0
0.498,-1707.941040039,-9.914630890,0
0.500,-1704.806640625,-5.273476601,0
0.502,-1696.931640625,2.023361444,0
0.504,-1702.129028320,-2.468655825,0
0.506,-1708.801879883,-7.109983444,0
0.508,-1706.600708008,-3.817874670,0
0.510,-1705.050292969,-1.763563871,0
0.512,-1706.254272461,-2.308049679,0
0.514,-1704.000366211,-0.042174771,0
0.516,-1697.881103516,4.726570606,0
0.518,-1700.856445313,1.362093329,0
0.520,-1704.764526367,-1.980183363,0
0.522,-1705.356689453,-2.000725985,0
0.524,-1704.008789063,-0.507748365,0
0.526,-1698.990600586,3.508076429,0
0.528,-1700.143920898,1.831474543,0
0.530,-1705.937622070,-3.081657887,0
0.532,-1704.897583008,-1.587946057,0
0.534,-1704.359741211,-0.816718936,0
0.536,-1705.118164063,-1.225115299,0
0.538,-1705.156250000,-0.982465327,0
0.540,-1709.943847656,-4.487742901,0
0.542,-1699.321899414,4.770972252,0
0.544,-1697.665161133,4.999296665,0
0.546,-1710.350341797,-5.977874279,0
0.548,-1706.658081055,-1.777711868,0
0.550,-1702.373901367,1.949463606,0
0.552,-1702.893432617,1.112156630,0
0.554,-1701.968017578,1.584744334,0
0.556,-1701.492919922,1.602116346,0
0.558,-1702.240722656,0.664424717,0
0.560,-1706.070068359,-2.461557627,0
0.562,-1707.344116211,-2.905381680,0
0.564,-1703.560546875,0.683025479,0
0.566,-1706.432495117,-1.702482820,0
0.568,-1708.520263672,-2.947994947,0
0.570,-1709.614379883,-3.143751383,0
0.572,-1709.959472656,-2.713502169,0
0.574,-1710.977294922,-2.902144909,0
0.576,-1710.123291016,-1.592955947,0
0.578,-1712.724731445,-3.262307882,0
0.580,-1714.053466797,-3.570734024,0
0.582,-1715.902343750,-4.215243340,0
0.584,-1716.835693359,-4.004408360,0
0.586,-1716.128784180,-2.564660072,0
0.588,-1713.252319336,0.242482409,0
0.590,-1718.802856445,-4.128367901,0
0.592,-1721.270385742,-5.130077362,0
0.594,-1723.917724609,-6.049041748,0
0.596,-1724.441406250,-5.112071514,0
0.598,-1723.982666016,-3.619223356,0
0.600,-1725.116210938,-3.696485758,0
0.602,-1727.468383789,-4.704513550,0
0.604,-1730.584838867,-6.082866669,0
0.606,-1725.628906250,-0.876464307,0
0.608,-1725.197753906,-0.346378982,0
0.610,-1730.114624023,-4.093572617,0
0.612,-1733.851196289,-6.090052605,0
0.614,-1733.898925781,-4.773737431,0
0.616,-1732.943969727,-2.970158100,0
0.618,-1733.484252930,-2.730292320,0
0.620,-1730.587524414,0.129456013,0
0.622,-1731.644409180,-0.721391499,0
0.624,-1734.628540039,-2.881967068,0
0.626,-1732.810913086,-0.827835441,0
0.628,-1730.775024414,0.939586759,0
0.630,-1735.802612305,-3.179483175,0
0.632,-1735.379638672,-2.143949509,0
0.634,-1732.631713867,0.469738901,0
0.636,-1733.027954102,0.057134125,0
0.638,-1736.951904297,-3.007494926,0
0.640,-1738.783081055,-3.763304472,0
0.642,-1736.843872070,-1.418712378,0
0.644,-1733.916748047,1.173205137,0
0.646,-1730.359008789,3.679508448,0
0.648,-1727.219116211,5.303968430,0
0.650,-1724.566772461,6.188114166,0
0.652,-1721.659545898,7.074131489,0
0.654,-1711.971557617,13.037032127,0
0.656,-1706.988769531,14.015174866,0
0.658,-1712.001708984,7.001665115,0
0.660,-1703.031250000,12.422574997,0
0.662,-1693.312988281,17.220407486,0
0.664,-1695.176513672,11.944154739,0
0.666,-1689.508666992,13.697983742,0
0.668,-1686.276611328,13.167650223,0
0.670,-1687.821166992,9.040106773,0
0.672,-1685.996948242,8.449893951,0
0.674,-1687.612182617,5.315762997,0
0.676,-1690.909179688,1.570182562,0
0.678,-1688.521728516,3.078120947,0
0.680,-1691.897094727,-0.231236398,0
0.682,-1691.081542969,0.454471886,0
0.684,-1691.237915039,0.231839001,0
0.686,-1692.583007813,-0.865834415,0
0.688,-1688.411743164,2.570892811,0
0.690,-1686.378784180,3.580653429,0
0.692,-1684.025878906,4.614964008,0
0.694,-1686.828125000,1.409894466,0
0.696,-1686.262939453,1.536136746,0
0.698,-1685.286010742,1.954591393,0
0.700,-1688.427368164,-0.922995806,0
0.702,-1686.228393555,0.992366672,0
0.704,-1685.902954102,1.024959803,0
0.706,-1681.272338867,4.398704052,0
0.708,-1681.860107422,2.964087725,0
0.710,-1687.708740234,-2.243532181,0
0.712,-1686.231079102,-0.595712006,0
0.714,-1686.069335938,-0.337482661,0
0.716,-1686.438232422,-0.549436510,0
0.718,-1682.358520508,2.745706558,0
0.720,-1679.265502930,4.541230202,0
0.722,-1675.166870117,6.719754219,0
0.724,-1670.439941406,8.902871132,0
0.726,-1665.634155273,10.662194252,0
0.728,-1666.647094727,7.504872322,0
0.730,-1666.253784180,6.142899990,0
0.732,-1667.027099609,4.176333427,0
0.734,-1670.425781250,0.604816973,0
0.736,-1664.597778320,5.003266335,0
0.738,-1663.430175781,4.799508095,0
0.740,-1666.833496094,1.085870862,0
0.742,-1659.887207031,6.247208595,0
0.744,-1659.192871094,5.398863792,0
0.746,-1667.697631836,-2.415660143,0
0.748,-1664.215820313,0.829222023,0
0.750,-1664.223388672,0.639053822,0
0.752,-1664.536010742,0.253920585,0
0.754,-1657.613769531,5.581351280,0
0.756,-1657.448120117,4.469864368,0
0.758,-1657.087036133,3.757285118,0
0.760,-1655.882080078,3.859555960,0
0.762,-1656.459838867,2.552417994,0
0.764,-1649.869995117,7.110578537,0
0.766,-1651.050292969,4.612338066,0
0.768,-1661.059814453,-4.197741985,0
0.770,-1660.073608398,-2.497770786,0
0.772,-1659.938110352,-1.837313533,0
0.774,-1661.965332031,-3.005754948,0
0.776,-1659.529052734,-0.442921042,0
0.778,-1659.822875977,-0.573002398,0
0.780,-1656.537719727,2.109472275,0
0.782,-1651.960571289,5.200569153,0
0.784,-1654.217529297,2.289506674,0
0.786,-1653.614379883,2.249824286,0
0.788,-1652.472534180,2.637861013,0
0.790,-1654.593505859,0.402069330,0
0.792,-1654.273925781,0.561251879,0
0.794,-1657.251831055,-1.879552841,0
0.796,-1653.997436523,1.069312811,0
0.798,-1647.875000000,5.593429565,0
0.800,-1649.550170898,3.047548056,0
0.802,-1650.351318359,1.747204661,0
0.804,-1651.882812500,0.167772651,0
0.806,-1657.353027344,-4.124098301,0
0.808,-1653.831665039,-0.468764484,0
0.810,-1651.676147461,1.311822057,0
0.812,-1652.707397461,0.218231142,0
0.814,-1653.721679688,-0.619115472,0
0.816,-1654.175659180,-0.834617794,0
0.818,-1654.881591797,-1.198158741,0
0.820,-1656.064086914,-1.851659179,0
0.822,-1656.677978516,-1.917567730,0
0.824,-1652.973632813,1.389678955,0
0.826,-1654.439453125,-0.059245043,0
0.828,-1652.833129883,1.203301430,0
0.830,-1653.317382813,0.559226751,0
0.832,-1653.744995117,0.102368578,0
0.834,-1651.852783203,1.551334620,0
0.836,-1651.474975586,1.500387549,0
0.838,-1655.377197266,-1.868020892,0
0.840,-1654.666381836,-0.900017440,0
0.842,-1653.086669922,0.528613329,0
0.844,-1658.822387695,-4.049935341,0
0.846,-1658.770263672,-3.109382868,0
0.848,-1650.510375977,4.005890846,0
0.850,-1656.975585938,-1.912706852,0
0.852,-1665.001831055,-7.730244637,0
0.854,-1663.667358398,-4.974402428,0
0.856,-1662.312500000,-2.815188646,0
0.858,-1659.054321289,0.344512969,0
0.860,-1657.279541016,1.648316264,0
0.862,-1657.072265625,1.443307400,0
0.864,-1654.978759766,2.750762463,0
0.866,-1651.601074219,4.766553879,0
0.868,-1656.685546875,-0.247301415,0
0.870,-1662.263183594,-4.530455589,0
0.872,-1663.991455078,-4.867873192,0
0.874,-1662.786865234,-2.849153757,0
0.876,-1660.990844727,-0.819037080,0
0.878,-1660.154052734,0.013751470,0
0.880,-1659.059692383,0.861912310,0
0.882,-1661.285766602,-1.061030865,0
0.884,-1664.909423828,-3.643643141,0
0.886,-1659.625244141,1.275985718,0
0.888,-1663.532348633,-2.046361446,0
0.890,-1666.700439453,-4.055689335,0
0.892,-1655.937255859,5.216880798,0
0.894,-1657.158569336,3.107641459,0
0.896,-1667.365478516,-5.521554947,0
0.898,-1663.807861328,-1.527560472,0
0.900,-1664.269409180,-1.547053337,0
0.902,-1670.524780273,-6.068446636,0
0.904,-1664.485229492,-0.022435132,0
0.906,-1661.501342773,2.303263187,0
0.908,-1665.527954102,-1.340300560,0
0.910,-1671.475708008,-5.668454170,0
0.912,-1674.301757813,-6.606730938,0
0.914,-1674.251953125,-5.099773407,0
0.916,-1681.032226563,-9.239912033,0
0.918,-1682.426147461,-8.270697594,0
0.920,-1675.078002930,-0.717519820,0
0.922,-1674.895141602,-0.415784180,0
0.924,-1669.864990234,3.588864326,0
0.926,-1669.820800781,2.825667620,0
0.928,-1678.605712891,-4.634912491,0
0.930,-1683.544921875,-7.446466446,0
0.932,-1684.255371094,-6.344133854,0
0.934,-1678.074096680,-0.126634866,0
0.936,-1677.810424805,0.106511213,0
0.938,-1681.939453125,-3.128581524,0
0.940,-1679.918457031,-0.861462593,0
0.942,-1681.036865234,-1.539802670,0
0.944,-1687.562988281,-6.273408413,0
0.946,-1699.308349609,-14.014412880,0
0.948,-1709.935546875,-19.165523529,0
0.950,-1701.176879883,-8.094091415,0
0.952,-1687.995727539,3.956528187,0
0.954,-1692.122070313,-0.132014245,0
0.956,-1706.810302734,-11.526700020,0
0.958,-1712.740966797,-13.577822685,0
0.960,-1698.344726563,0.636587977,0
0.962,-1673.093872070,20.134328842,0
0.964,-1656.509277344,28.558853149,0
0.966,-1644.182250977,31.799694061,0
0.968,-1634.460083008,32.294353485,0
0.970,-1628.959472656,29.395677567,0
0.972,-1626.337158203,24.902633667,0
0.974,-1633.343139648,13.919380188,0
0.976,-1643.788208008,2.702181101,0
0.978,-1640.111816406,4.961057186,0
0.980,-1635.895996094,7.137504101,0
0.982,-1635.329589844,5.991909504,0
0.984,-1635.212402344,4.751379967,0
0.986,-1632.115112305,6.104431152,0
0.988,-1630.102172852,6.313425064,0
0.990,-1628.828125000,5.901350021,0
0.992,-1628.433715820,4.896602631,0
0.994,-1631.149169922,1.696404219,0
0.996,-1628.795776367,3.149879694,0
0.998,-1631.420776367,0.408226609,0
1.000,-1649.005615234,-13.359422684,0
1.002,-1662.834838867,-21.146450043,0
1.004,-1666.100830078,-18.987237930,0
1.006,-1665.967529297,-14.663968086,0
1.008,-1664.609375000,-10.348820686,0
1.010,-1664.442382813,-7.919102669,0
1.012,-1663.748535156,-5.619613647,0
1.014,-1665.369018555,-5.631090641,0
1.016,-1667.949462891,-6.386660576,0
1.018,-1659.263305664,1.788497567,0
1.020,-1659.510009766,1.199187398,0
1.022,-1665.119750977,-3.430417776,0
1.024,-1666.509521484,-3.749032497,0
1.026,-1667.952270508,-4.037991524,0
1.028,-1672.974853516,-7.047005653,0
1.030,-1671.062255859,-3.993322372,0
1.032,-1663.023315430,3.146545172,0
1.034,-1663.451538086,2.114196062,0
1.036,-1666.207885742,-0.499501199,0
1.038,-1665.710449219,-0.001538289,0
1.040,-1668.536499023,-2.199263096,0
1.042,-1669.529296875,-2.482687473,0
1.044,-1673.509521484,-5.026612282,0
1.046,-1669.510253906,-0.799052298,0
1.048,-1667.575683594,0.883174121,0
1.050,-1675.615844727,-5.566414833,0
1.052,-1676.224243164,-4.802593708,0
1.054,-1674.944091797,-2.739615917,0
1.056,-1676.571411133,-3.396517038,0
1.058,-1677.795532227,-3.593800306,0
1.060,-1676.413452148,-1.720183134,0
1.062,-1675.881225586,-0.923991561,0
1.064,-1676.131225586,-0.913000286,0
1.066,-1676.316406250,-0.854163826,0
1.068,-1677.645263672,-1.697897315,0
1.070,-1680.554199219,-3.583027601,0
1.072,-1693.239379883,-12.652904510,0
1.074,-1717.883544922,-29.008501053,0
1.076,-1755.243652344,-51.619331360,0
1.078,-1793.587402344,-69.970344543,0
1.080,-1819.486450195,-74.564170837,0
1.082,-1834.181030273,-69.422554016,0
1.084,-1842.089965820,-60.145927429,0
1.086,-1850.129394531,-53.032302856,0
1.088,-1874.038330078,-59.842430115,0
1.090,-1892.785034180,-61.124156952,0
1.092,-1930.995727539,-77.259346008,0
1.094,-1979.669067383,-97.946411133,0
1.096,-1974.600830078,-72.237625122,0
1.098,-1917.518676758,-11.787418365,0
1.100,-1758.453125000,114.548103333,0
1.102,-1519.982910156,274.566223145,0
1.104,-1292.066284180,390.815002441,0
1.106,-995.057128906,534.967346191,0
1.108,-599.097045898,724.045288086,0
1.110,-198.948379517,874.361694336,0
1.112,60.875858307,882.133178711,0
1.114,159.870559692,763.089538574,0
1.116,234.482879639,651.537475586,0
1.118,193.612442017,474.957061768,0
1.120,31.464086533,243.292495728,0
1.122,-32.566913605,139.423797607,0
1.124,-110.748458862,47.632247925,0
1.126,-302.146820068,-111.816635132,0
1.128,-473.505096436,-220.244293213,0
1.130,-641.843750000,-302.227294922,0
1.132,-836.653808594,-386.579559326,0
1.134,-1018.350952148,-441.987243652,0
1.136,-1171.610107422,-462.963409424,0
1.138,-1300.532226563,-460.349395752,0
1.140,-1393.838134766,-430.615295410,0
1.142,-1453.733520508,-381.503295898,0
1.144,-1509.216430664,-339.873748779,0
1.146,-1552.087768555,-297.686798096,0
1.148,-1573.176757813,-247.933502197,0
1.150,-1590.163818359,-206.046615601,0
1.152,-1603.599853516,-170.706481934,0
1.154,-1616.106445313,-142.497253418,0
1.156,-1632.156372070,-123.312873840,0
1.158,-1641.877197266,-103.469329834,0
1.160,-1647.464843750,-84.820915222,0
1.162,-1657.535278320,-73.803482056,0
1.164,-1664.069580078,-62.484077454,0
1.166,-1667.115600586,-50.967201233,0
1.168,-1674.850830078,-45.656841278,0
1.170,-1676.969726563,-37.158481598,0
1.172,-1677.917358398,-29.637716293,0
1.174,-1687.222534180,-30.288467407,0
1.176,-1692.437988281,-27.613868713,0
1.178,-1693.546752930,-22.339466095,0
1.180,-1696.737304688,-19.856464386,0
1.182,-1697.278808594,-15.864846230,0
1.184,-1696.207641602,-11.506089211,0
1.186,-1697.511352539,-9.963067055,0
1.188,-1697.822631836,-7.991028309,0
1.190,-1702.095825195,-9.538732529,0
1.192,-1703.221435547,-8.294393539,0
1.194,-1699.239990234,-3.354393244,0
1.196,-1701.452148438,-4.329483986,0
1.198,-1707.223266602,-7.855946541,0
1.200,-1706.679443359,-5.687177181,0
1.202,-1706.554321289,-4.325962543,0
1.204,-1714.398071289,-9.465250969,0
1.206,-1712.995849609,-6.271126747,0
1.208,-1707.827026367,-0.857304394,0
1.210,-1709.325195313,-1.832041860,0
1.212,-1707.911010742,-0.324939877,0
1.214,-1706.876220703,0.552024782,0
1.216,-1710.036987305,-2.028964281,0
1.218,-1709.388061523,-1.073349476,0
1.220,-1706.411132813,1.480496645,0
1.222,-1708.637939453,-0.580435574,0
1.224,-1709.380004883,-1.028596401,0
1.226,-1702.708862305,4.388576508,0
1.228,-1704.211669922,2.244502783,0
1.230,-1710.904785156,-3.460007191,0
1.232,-1712.660400391,-4.056542873,0
1.234,-1707.469848633,0.882003248,0
1.236,-1706.594116211,1.367127895,0
1.238,-1713.878173828,-4.601977348,0
1.240,-1715.298217773,-4.683781624,0
1.242,-1712.947509766,-1.814611435,0
1.244,-1712.543701172,-1.097222686,0
1.246,-1712.339965820,-0.694909871,0
1.248,-1712.349243164,-0.547736704,0
1.250,-1713.189453125,-1.079533100,0
1.252,-1713.920043945,-1.407856703,0
1.254,-1715.231445313,-2.114936352,0
1.256,-1718.331054688,-4.055676460,0
1.258,-1719.602905273,-4.143558979,0
1.260,-1717.944580078,-1.932981730,0
1.262,-1719.068725586,-2.377682686,0
1.264,-1716.958984375,-0.208462968,0
1.266,-1713.682373047,2.386379242,0
1.268,-1721.720947266,-4.396115303,0
1.270,-1727.853759766,-8.189031601,0
1.272,-1726.214599609,-5.094306469,0
1.274,-1725.430541992,-3.352362156,0
1.276,-1728.344604492,-4.873833656,0
1.278,-1730.531494141,-5.491604805,0
1.280,-1729.178588867,-3.218991756,0
1.282,-1732.347412109,-4.968214035,0
1.284,-1733.417236328,-4.696222782,0
1.286,-1734.040161133,-4.137045860,0
1.288,-1744.329589844,-11.220416069,0
1.290,-1751.385375977,-14.214624405,0
1.292,-1749.772094727,-9.800888062,0
1.294,-1753.749511719,-10.716328621,0
1.296,-1756.121459961,-10.179692268,0
1.298,-1757.062255859,-8.649121284,0
1.300,-1762.143920898,-10.679332733,0
1.302,-1762.459594727,-8.551568031,0
1.304,-1764.542968750,-8.271508217,0
1.306,-1769.492065430,-10.282569885,0
1.308,-1766.968994141,-6.035142899,0
1.310,-1764.801635742,-3.008237362,0
1.312,-1768.412475586,-5.148036003,0
1.314,-1768.627075195,-4.170897484,0
1.316,-1772.472534180,-6.234872341,0
1.318,-1774.954467773,-6.779698372,0
1.320,-1773.095825195,-3.827450037,0
1.322,-1775.349975586,-4.730010986,0
1.324,-1780.576049805,-7.743587971,0
1.326,-1777.855468750,-3.906663418,0
1.328,-1772.785034180,0.905141413,0
1.330,-1777.119628906,-2.667316675,0
1.332,-1783.386718750,-6.948891640,0
1.334,-1784.677246094,-6.408426285,0
1.336,-1782.910034180,-3.609769583,0
1.338,-1780.851440430,-1.206399918,0
1.340,-1784.254028320,-3.584707737,0
1.342,-1782.036010742,-1.063040137,0
1.344,-1773.279663086,5.983643055,0
1.346,-1769.069091797,7.928750515,0
1.348,-1764.564208984,9.670411110,0
1.350,-1763.085327148,8.671601295,0
1.352,-1758.811523438,10.068531990,0
1.354,-1749.045166016,15.426925659,0
1.356,-1741.820800781,17.617429733,0
1.358,-1736.324462891,17.977134705,0
1.360,-1731.494750977,17.738405228,0
1.362,-1727.161865234,17.166357040,0
1.364,-1725.496826172,14.646448135,0
1.366,-1726.179687500,10.860440254,0
1.368,-1719.747680664,13.449559212,0
1.370,-1719.948608398,10.304324150,0
1.372,-1722.509887695,6.022269726,0
1.374,-1720.265136719,6.429839611,0
1.376,-1719.337524414,5.722367287,0
1.378,-1719.322753906,4.462202072,0
1.380,-1716.287231445,5.831412315,0
1.382,-1714.457275391,5.958848000,0
1.384,-1711.470947266,6.957235336,0
1.386,-1713.837280273,3.570644855,0
1.388,-1721.278076172,-3.010030985,0
1.390,-1717.188964844,0.839233339,0
1.392,-1711.923095703,4.748331070,0
1.394,-1710.565795898,4.748754978,0
1.396,-1710.229614258,3.954891443,0
1.398,-1709.020507813,4.016429901,0
1.400,-1707.893310547,4.000551224,0
1.402,-1704.582397461,5.686627388,0
1.404,-1706.790039063,2.705780745,0
1.406,-1705.244628906,3.306440115,0
1.408,-1703.499145508,3.929301977,0
1.410,-1701.011962891,4.990518570,0
1.412,-1696.460815430,7.421208382,0
1.414,-1692.512939453,8.842471123,0
1.416,-1695.645385742,4.441102982,0
1.418,-1698.111816406,1.535801291,0
1.420,-1694.322631836,4.141630173,0
1.422,-1696.570800781,1.472660542,0
1.424,-1698.719970703,-0.526191890,0
1.426,-1697.799804688,0.306419790,0
1.428,-1695.662353516,1.900825977,0
1.430,-1693.339965820,3.284635305,0
1.432,-1696.069213867,0.431957781,0
1.434,-1697.980224609,-1.150381923,0
1.436,-1692.432617188,3.420018911,0
1.438,-1693.906738281,1.513476849,0
1.440,-1700.430541992,-3.896861315,0
1.442,-1696.279052734,0.198055059,0
1.444,-1691.641235352,3.761219740,0
1.446,-1691.478393555,3.052007198,0
1.448,-1696.530761719,-1.555818319,0
1.450,-1692.604736328,1.843416691,0
1.452,-1689.883666992,3.550075769,0
1.454,-1698.247924805,-3.744312525,0
1.456,-1695.567993164,-0.827780843,0
1.458,-1691.049926758,2.870179653,0
1.460,-1689.711547852,3.273277044,0
1.462,-1689.388305664,2.797200441,0
1.464,-1694.385864258,-1.711317062,0
1.466,-1692.795776367,-0.094318040,0
1.468,-1690.968383789,1.347923636,0
1.470,-1690.909057617,1.094566584,0
1.472,-1688.804687500,2.487972021,0
1.474,-1687.824584961,2.697436810,0
1.476,-1692.873168945,-1.828707218,0
1.478,-1693.725463867,-2.085145235,0
1.480,-1690.935424805,0.548174977,0
1.482,-1692.303344727,-0.637547314,0
1.484,-1691.630859375,0.027146270,0
1.486,-1690.240844727,1.102250934,0
1.488,-1695.106079102,-2.926730871,0
1.490,-1695.145263672,-2.306770802,0
1.492,-1695.478759766,-2.053569794,0
1.494,-1697.824340820,-3.421446800,0
1.496,-1696.417114258,-1.566588163,0
1.498,-1693.341186523,1.173921227,0
1.500,-1693.915283203,0.466443390,0
1.502,-1697.184570313,-2.179871798,0
1.504,-1694.678344727,0.253808588,0
1.506,-1697.439697266,-1.950280666,0
1.508,-1695.463378906,0.020187836,0
1.510,-1692.711669922,2.155892849,0
1.512,-1694.681884766,0.144437343,0
1.514,-1693.416870117,1.096204400,0
1.516,-1694.080566406,0.336379617,0
1.518,-1691.780395508,2.050671101,0
1.520,-1686.112426758,6.003295422,0
1.522,-1686.629638672,4.266870975,0
1.524,-1691.000610352,-0.080929525,0
1.526,-1693.409301758,-1.936383367,0
1.528,-1692.673339844,-0.933643818,0
1.530,-1691.659545898,0.062333498,0
1.532,-1691.729614258,-0.006028573,0
1.534,-1690.501953125,0.950187683,0
1.536,-1689.041381836,1.875052094,0
1.538,-1687.007568359,3.040177345,0
1.540,-1686.893188477,2.453521729,0
1.542,-1686.696289063,2.061420679,0
1.544,-1687.239135742,1.181006193,0
1.546,-1687.713256836,0.549800396,0
1.548,-1686.072509766,1.703770518,0
1.550,-1690.728027344,-2.295783281,0
1.552,-1691.978515625,-2.758196354,0
1.554,-1693.047485352,-2.976615667,0
1.556,-1696.657836914,-5.123168945,0
1.558,-1694.307006836,-2.156212330,0
1.560,-1691.417236328,0.570546210,0
1.562,-1690.768310547,0.948469579,0
1.564,-1690.667846680,0.815796018,0
1.566,-1692.968383789,-1.154716730,0
1.568,-1694.478149414,-2.072354317,0
1.570,-1695.602416992,-2.486219168,0
1.572,-1694.050170898,-0.726463377,0
1.574,-1691.576293945,1.359137893,0
1.576,-1693.881347656,-0.735734522,0
1.578,-1695.447875977,-1.790635467,0
1.580,-1692.706420898,0.739545345,0
1.582,-1692.731811523,0.555390060,0
1.584,-1694.744506836,-1.133425951,0
1.586,-1694.137939453,-0.409735411,0
1.588,-1693.374267578,0.275294632,0
1.590,-1692.237792969,1.097986817,0
1.592,-1692.350952148,0.765971720,0
1.594,-1693.424072266,-0.238877103,0
1.596,-1690.544555664,2.053764820,0
1.598,-1690.055664063,1.977593780,0
1.600,-1686.863281250,4.021069050,0
1.602,-1680.410034180,8.146549225,0
1.604,-1684.838623047,2.891779661,0
1.606,-1696.668579102,-6.951828957,0
1.608,-1695.675537109,-4.634607792,0
1.610,-1691.124877930,-0.065255433,0
1.612,-1687.880981445,2.472182989,0
1.614,-1689.388916016,0.749960601,0
1.616,-1692.597656250,-1.912340999,0
1.618,-1688.490844727,1.706830263,0
1.620,-1687.705688477,1.938199997,0
1.622,-1692.413574219,-2.154200315,0
1.624,-1694.786010742,-3.520713091,0
1.626,-1692.747558594,-1.152843475,0
1.628,-1692.046020508,-0.350995630,0
1.630,-1694.636230469,-2.287599087,0
1.632,-1692.386108398,-0.029145839,0
1.634,-1689.770385742,2.011790991,0
1.636,-1692.748779297,-0.751810372,0
1.638,-1693.199462891,-0.935284793,0
1.640,-1692.821533203,-0.433401376,0
1.642,-1692.962768555,-0.447001219,0
1.644,-1691.736572266,0.606091976,0
1.646,-1693.654296875,-1.020185709,0
1.648,-1693.130004883,-0.385663122,0
1.650,-1693.335815430,-0.460064441,0
1.652,-1690.945312500,1.501476288,0
1.654,-1688.273315430,3.245937347,0
1.656,-1691.836914063,-0.247047514,0
1.658,-1691.891479492,-0.234613016,0
1.660,-1687.190307617,3.473970890,0
1.662,-1690.893066406,-0.177973971,0
1.664,-1688.362548828,1.829722762,0
1.666,-1690.179809570,0.009728269,0
1.668,-1702.662963867,-9.701381683,0
1.670,-1701.835449219,-6.901844501,0
1.672,-1697.469604492,-1.972440004,0
1.674,-1703.099487305,-5.912827969,0
1.676,-1698.098144531,-0.708921850,0
1.678,-1699.780639648,-1.859962344,0
1.680,-1700.895507813,-2.313703775,0
1.682,-1693.857055664,3.674759626,0
1.684,-1698.771972656,-0.964571059,0
1.686,-1704.305664063,-5.054159164,0
1.688,-1701.262084961,-1.563790679,0
1.690,-1703.970458984,-3.322694302,0
1.692,-1703.579711914,-2.280352354,0
1.694,-1704.428222656,-2.433579206,0
1.696,-1708.887207031,-5.360775471,0
1.698,-1711.293457031,-6.040990353,0
1.700,-1715.054077148,-7.623368740,0
1.702,-1721.270629883,-10.764230728,0
1.704,-1730.988891602,-15.930580139,0
1.706,-1735.246948242,-15.702128410,0
1.708,-1733.997924805,-11.241148949,0
1.710,-1736.246826172,-10.492136002,0
1.712,-1728.410766602,-2.065784454,0
1.714,-1703.855712891,17.491472244,0
1.716,-1682.171997070,30.469110489,0
1.718,-1672.465209961,31.247596741,0
1.720,-1664.046386719,30.851236343,0
1.722,-1661.861694336,25.694217682,0
1.724,-1666.560302734,16.329788208,0
1.726,-1668.450927734,11.230258942,0
1.728,-1665.606689453,10.946682930,0
1.730,-1667.793945313,6.812805653,0
1.732,-1673.428222656,0.916658700,0
1.734,-1676.459106445,-1.644407034,0
1.736,-1677.080688477,-1.762406588,0
1.738,-1669.463134766,4.553987980,0
1.740,-1661.853515625,9.460379601,0
1.742,-1662.616333008,6.764731884,0
1.744,-1659.700927734,7.528899193,0
1.746,-1655.737548828,8.938318253,0
1.748,-1655.203735352,7.367101192,0
1.750,-1663.249877930,-0.528144479,0
1.752,-1671.493408203,-6.822356701,0
1.754,-1676.926147461,-9.531605721,0
1.756,-1685.967163086,-14.445188522,0
1.758,-1688.384277344,-13.114903450,0
1.760,-1686.954101563,-9.087984085,0
1.762,-1693.262817383,-11.975082397,0
1.764,-1696.503662109,-11.834487915,0
1.766,-1691.639282227,-5.421094894,0
1.768,-1687.750488281,-1.191737533,0
1.770,-1694.788940430,-6.401200771,0
1.772,-1688.331665039,0.043561697,0
1.774,-1682.375732422,4.666262150,0
1.776,-1682.529296875,3.509815693,0
1.778,-1682.332641602,2.882805347,0
1.780,-1682.791748047,1.885085583,0
1.782,-1688.371215820,-2.873402834,0
1.784,-1692.916137695,-5.769706249,0
1.786,-1694.603515625,-5.799958229,0
1.788,-1694.980102539,-4.803906918,0
1.790,-1690.009887695,0.129410818,0
1.792,-1688.110229492,1.578110814,0
1.794,-1690.314819336,-0.487293810,0
1.796,-1693.565429688,-2.907134771,0
1.798,-1700.292846680,-7.493439674,0
1.800,-1708.862304688,-12.493261337,0
1.802,-1702.496337891,-4.765573502,0
1.804,-1696.295898438,1.115957260,0
1.806,-1700.189453125,-2.160353422,0
1.808,-1699.196289063,-0.907792270,0
1.810,-1699.263793945,-0.758494616,0
1.812,-1699.277832031,-0.600896537,0
1.814,-1691.997924805,5.194757462,0
1.816,-1695.037109375,1.676538229,0
1.818,-1696.116577148,0.464388847,0
1.820,-1698.637207031,-1.599341035,0
1.822,-1702.248657227,-4.052752972,0
1.824,-1705.904418945,-5.995461464,0
1.826,-1724.473510742,-19.105463028,0
1.828,-1752.505371094,-36.661941528,0
1.830,-1792.492919922,-59.615467072,0
1.832,-1828.499023438,-74.371353149,0
1.834,-1837.701171875,-65.000762939,0
1.836,-1843.751220703,-55.261035919,0
1.838,-1854.271606445,-51.162708282,0
1.840,-1874.611938477,-55.612709045,0
1.842,-1894.966674805,-59.085083008,0
1.844,-1916.179931641,-62.453426361,0
1.846,-1977.013549805,-95.888671875,0
1.848,-2004.059692383,-95.614677429,0
1.850,-1968.528198242,-46.730800629,0
1.852,-1876.966796875,34.867835999,0
1.854,-1667.568359375,189.982330322,0
1.856,-1434.186645508,329.278900146,0
1.858,-1179.432739258,454.241882324,0
1.860,-819.483947754,633.251159668,0
1.862,-406.442047119,813.772949219,0
1.864,-39.069862366,918.656494141,0
1.866,153.579910278,864.338073730,0
1.868,221.902313232,725.393188477,0
1.870,247.517776489,584.110290527,0
1.872,129.405380249,362.438079834,0
1.874,4.718976498,184.915573120,0
1.876,-28.550243378,117.945625305,0
1.878,-173.982254028,-21.378017426,0
1.880,-366.621612549,-166.455795288,0
1.882,-527.879394531,-254.885055542,0
1.884,-725.981811523,-352.319000244,0
1.886,-924.079956055,-428.096649170,0
1.888,-1099.594238281,-469.469116211,0
1.890,-1244.630981445,-477.942749023,0
1.892,-1351.878417969,-455.142028809,0
1.894,-1424.784057617,-410.698425293,0
1.896,-1484.314575195,-365.728881836,0
1.898,-1537.238281250,-325.614471436,0
1.900,-1565.623046875,-275.329101563,0
1.902,-1583.650268555,-228.163131714,0
1.904,-1603.454467773,-192.860916138,0
1.906,-1620.876220703,-163.551116943,0
1.908,-1630.989624023,-135.070632935,0
1.910,-1639.722656250,-111.845863342,0
1.912,-1655.719238281,-99.431724548,0
1.914,-1664.595092773,-84.238082886,0
1.916,-1671.644042969,-71.000099182,0
1.918,-1683.262573242,-64.258094788,0
1.920,-1691.455566406,-56.350139618,0
1.922,-1692.693359375,-44.789985657,0
1.924,-1695.224609375,-36.805000305,0
1.926,-1702.065307617,-33.946144104,0
1.928,-1702.992919922,-27.123701096,0
1.930,-1699.478515625,-18.362565994,0
1.932,-1704.854370117,-18.463003159,0
1.934,-1706.591430664,-15.710897446,0
1.936,-1705.923461914,-11.699962616,0
1.938,-1710.602050781,-12.738724709,0
1.940,-1709.628295898,-9.150389671,0
1.942,-1709.322875977,-6.879348278,0
1.944,-1716.263793945,-10.748925209,0
1.946,-1719.143554688,-10.599903107,0
1.948,-1718.850219727,-8.016157150,0
1.950,-1722.366943359,-8.969921112,0
1.952,-1718.215332031,-3.747522593,0
1.954,-1716.780395508,-1.798673630,0
1.956,-1720.929687500,-4.626054287,0
1.958,-1718.559814453,-1.754829884,0
1.960,-1719.526855469,-2.116983652,0
1.962,-1726.765502930,-7.276479721,0
1.964,-1729.249877930,-7.591690063,0
1.966,-1727.343994141,-4.422206879,0
1.968,-1729.071899414,-4.783387184,0
1.970,-1721.336303711,2.296122551,0
1.972,-1709.586669922,10.924329758,0
1.974,-1709.897949219,8.254461288,0
1.976,-1715.159667969,2.327691793,0
1.978,-1717.669921875,-0.142020032,0
1.980,-1723.465942383,-4.618350506,0
1.982,-1730.370727539,-8.962376595,0
1.984,-1734.861328125,-10.463285446,0
1.986,-1741.748413086,-13.494546890,0
1.988,-1740.314453125,-9.380367279,0
1.990,-1733.696655273,-2.148564339,0
1.992,-1725.985839844,4.326050282,0
1.994,-1722.696166992,5.923321724,0
1.996,-1721.091430664,5.855053425,0
1.998,-1714.922607422,9.351826668,0
2.000,-1708.208740234,12.495323181,0
2.002,-1712.532226563,6.355844498,0
2.004,-1715.871948242,2.345809937,0
2.006,-1719.687744141,-1.143305182,0
2.008,-1721.927001953,-2.630865335,0
2.010,-1722.838378906,-2.755030155,0
2.012,-1724.860107422,-3.715175629,0
2.014,-1725.449218750,-3.347803831,0
2.016,-1722.520507813,-0.325868905,0
2.018,-1726.438598633,-3.300870180,0
2.020,-1734.192993164,-8.598390579,0
2.022,-1741.785644531,-12.592930794,0
2.024,-1734.321289063,-3.988770247,0
2.026,-1724.264526367,4.719450951,0
2.028,-1733.048706055,-3.161405802,0
2.030,-1742.399047852,-9.731251717,0
2.032,-1743.278808594,-8.252938271,0
2.034,-1738.630249023,-2.803296328,0
2.036,-1728.473876953,5.718967915,0
2.038,-1728.551879883,4.387325764,0
2.040,-1730.768920898,1.688028812,0
2.042,-1727.644897461,3.742677212,0
2.044,-1729.305908203,1.619046926,0
2.046,-1730.431518555,0.383734524,0
2.048,-1733.881713867,-2.385010958,0
2.050,-1746.151977539,-11.398351669,0
2.052,-1757.584106445,-17.756832123,0
2.054,-1755.001464844,-11.802015305,0
2.056,-1757.546142578,-11.158337593,0
2.058,-1777.431396484,-24.144760132,0
2.060,-1773.162475586,-15.458781242,0
2.062,-1755.428955078,1.769216180,0
2.064,-1759.036254883,-1.429586530,0
2.066,-1771.216308594,-10.585116386,0
2.068,-1773.918334961,-10.334315300,0
2.070,-1781.676757813,-14.071951866,0
2.072,-1788.363891602,-16.145715714,0
2.074,-1784.929809570,-9.886708260,0
2.076,-1793.040039063,-13.997420311,0
2.078,-1801.327392578,-17.332469940,0
2.080,-1790.492431641,-5.053462982,0
2.082,-1780.966430664,3.478559494,0
2.084,-1778.464355469,4.651520252,0
2.086,-1782.955200195,0.124942452,0
2.088,-1789.315429688,-4.849530220,0
2.090,-1783.117431641,1.048802614,0
2.092,-1777.717529297,5.015548706,0
2.094,-1778.953002930,2.940025330,0
2.096,-1776.146728516,4.469279766,0
2.098,-1771.685180664,6.946071148,0
2.100,-1765.560668945,10.165897369,0
2.102,-1758.878784180,13.103641510,0
2.104,-1761.165039063,8.413466454,0
2.106,-1767.411254883,1.685591102,0
2.108,-1768.821044922,0.214571446,0
2.110,-1761.822021484,5.610410213,0
2.112,-1751.312744141,12.537430763,0
2.114,-1738.705078125,19.557037354,0
2.116,-1713.185546875,35.059055328,0
2.118,-1707.360351563,31.798446655,0
2.120,-1710.821533203,22.039880753,0
2.122,-1693.268310547,30.794185638,0
2.124,-1693.595336914,23.696430206,0
2.126,-1729.914428711,-9.817574501,0
2.128,-1717.464965820,2.047072172,0
2.130,-1662.451904297,44.379474640,0
2.132,-1658.446777344,37.632038116,0
2.134,-1672.734497070,18.156446457,0
2.136,-1659.390747070,24.499795914,0
2.138,-1686.285522461,-1.862695336,0
2.140,-1764.680541992,-62.421855927,0
2.142,-1783.373291016,-63.088363647,0
2.144,-1719.949462891,0.260964245,0
2.146,-1680.151733398,31.156322479,0
2.148,-1678.337890625,25.643144608,0
2.150,-1663.946044922,31.137928009,0
2.152,-1649.042236328,35.809726715,0
2.154,-1664.218139648,16.048377991,0
2.156,-1711.658691406,-24.415832520,0
2.158,-1762.637329102,-58.639373779,0
2.160,-1773.869995117,-54.344242096,0
2.162,-1752.763061523,-25.850948334,0
2.164,-1714.050537109,10.003376961,0
2.166,-1678.313110352,35.575706482,0
2.168,-1645.740478516,53.003585815,0
2.170,-1627.779541016,55.193874359,0
2.172,-1636.039428711,36.503772736,0
2.174,-1642.363159180,23.473091125,0
2.176,-1650.181640625,12.175577164,0
2.178,-1677.401855469,-11.701190948,0
2.180,-1703.633422852,-29.502882004,0
2.182,-1696.307128906,-17.248264313,0
2.184,-1698.264282227,-14.937372208,0
2.186,-1706.105712891,-17.716569901,0
2.188,-1668.088623047,15.789053917,0
2.190,-1652.968505859,24.040195465,0
2.192,-1668.468505859,6.642276764,0
2.194,-1670.816528320,3.339907408,0
2.196,-1681.465454102,-5.684674740,0
2.198,-1716.109985352,-31.366769791,0
2.200,-1747.290039063,-48.646881104,0
2.202,-1751.798461914,-41.342468262,0
2.204,-1720.038574219,-7.453016758,0
2.206,-1686.894409180,19.981691360,0
2.208,-1678.893554688,21.763917923,0
2.210,-1667.829467773,25.532564163,0
2.212,-1657.111572266,28.194444656,0
2.214,-1652.268066406,25.695882797,0
2.216,-1664.521728516,10.454870224,0
2.218,-1667.472167969,5.836780548,0
2.220,-1654.616333008,14.538458824,0
2.222,-1660.509399414,6.724153519,0
2.224,-1675.133911133,-6.144683838,0
2.226,-1689.189575195,-15.711194038,0
2.228,-1693.549072266,-15.610320091,0
2.230,-1712.871337891,-27.169399261,0
2.232,-1739.063354492,-41.502853394,0
2.234,-1746.327636719,-37.929458618,0
2.236,-1744.103637695,-27.770526886,0
2.238,-1721.291748047,-3.856720448,0
2.240,-1682.149780273,27.443725586,0
2.242,-1642.873291016,51.892807007,0
2.244,-1643.345703125,39.993114471,0
2.246,-1682.488525391,0.661406159,0
2.248,-1699.915405273,-13.039680481,0
2.250,-1723.630737305,-28.586877823,0
2.252,-1763.671264648,-53.376113892,0
2.254,-1736.666870117,-20.511106491,0
2.256,-1706.997802734,7.122799873,0
2.258,-1746.398437500,-25.104694366,0
2.260,-1758.784301758,-29.158962250,0
2.262,-1750.067993164,-15.899603844,0
2.264,-1751.402587891,-13.404214859,0
2.266,-1725.705566406,9.560956955,0
2.268,-1650.583251953,65.863868713,0
2.270,-1598.999633789,91.346862793,0
2.272,-1641.106567383,38.297241211,0
2.274,-1712.909912109,-26.059909821,0
2.276,-1756.154296875,-53.902729034,0
2.278,-1784.833007813,-64.229164124,0
2.280,-1772.558471680,-40.408615112,0
2.282,-1698.137084961,26.454080582,0
2.284,-1643.291748047,63.232070923,0
2.286,-1634.935546875,55.679004669,0
2.288,-1656.679565430,26.393558502,0
2.290,-1709.493408203,-20.548858643,0
2.292,-1750.183349609,-47.629589081,0
2.294,-1736.744262695,-26.592243195,0
2.296,-1718.054199219,-6.146107674,0
2.298,-1725.976806641,-10.942103386,0
2.300,-1754.311889648,-30.548601151,0
2.302,-1737.306152344,-10.533191681,0
2.304,-1665.302124023,47.810062408,0
2.306,-1656.405151367,44.104866028,0
2.308,-1689.536499023,8.534888268,0
2.310,-1705.668701172,-5.908920765,0
2.312,-1725.526123047,-20.040317535,0
2.314,-1722.230346680,-13.023280144,0
2.316,-1685.393676758,18.521278381,0
2.318,-1694.586791992,7.255112648,0
2.320,-1713.140991211,-8.788092613,0
2.322,-1726.166259766,-16.965742111,0
2.324,-1752.608886719,-33.761547089,0
2.326,-1743.033081055,-18.810888290,0
2.328,-1728.652099609,-3.445485353,0
2.330,-1763.601196289,-29.862096786,0
2.332,-1772.619262695,-30.239690781,0
2.334,-1739.075439453,2.569830656,0
2.336,-1731.181030273,8.138770103,0
2.338,-1716.163208008,18.010414124,0
2.340,-1691.017578125,33.565418243,0
2.342,-1692.106445313,25.259241104,0
2.344,-1713.335205078,3.134712934,0
2.346,-1718.961914063,-1.938193321,0
2.348,-1714.493286133,1.968096375,0
2.350,-1722.333129883,-4.566865444,0
2.352,-1715.016357422,2.138830662,0
2.354,-1721.514404297,-3.390519142,0
2.356,-1754.127197266,-28.002174377,0
2.358,-1764.404052734,-29.772186279,0
2.360,-1752.573120117,-13.954147339,0
2.362,-1721.130249023,13.602147102,0
2.364,-1706.946899414,21.610685349,0
2.366,-1729.500854492,-0.733582139,0
2.368,-1698.839355469,23.276947021,0
2.370,-1672.848876953,38.318611145,0
2.372,-1687.216796875,18.628051758,0
2.374,-1674.816772461,24.132650375,0
2.376,-1700.155273438,-0.937916040,0
2.378,-1792.894775391,-72.859237671,0
2.380,-1796.625854492,-59.569522858,0
2.382,-1699.298706055,29.366752625,0
2.384,-1692.680419922,27.987924576,0
2.386,-1718.095458984,2.001143456,0
2.388,-1706.175415039,10.827406883,0
2.390,-1714.318115234,2.088103294,0
2.392,-1689.180419922,21.175317764,0
2.394,-1661.565429688,37.947540283,0
2.396,-1666.119995117,25.971979141,0
2.398,-1677.149658203,11.621706963,0
2.400,-1702.897827148,-10.987139702,0
2.402,-1737.333007813,-35.328029633,0
2.404,-1763.040649414,-47.471565247,0
2.406,-1771.186645508,-43.257549286,0
2.408,-1759.988525391,-24.934740067,0
2.410,-1747.314208984,-9.535795212,0
2.412,-1776.192749023,-29.877418518,0
2.414,-1774.672851563,-22.055557251,0
2.416,-1711.355712891,32.091899872,0
2.418,-1660.996459961,64.127807617,0
2.420,-1652.404174805,56.559341431,0
2.422,-1675.523071289,26.008966446,0
2.424,-1698.477539063,2.375684500,0
2.426,-1732.562622070,-24.662525177,0
2.428,-1787.484741211,-61.898368835,0
2.430,-1755.871948242,-23.555200577,0
2.432,-1676.181518555,43.660182953,0
2.434,-1640.915649414,61.386177063,0
2.436,-1632.450561523,54.328002930,0
2.438,-1705.386718750,-14.472839355,0
2.440,-1833.595214844,-110.972885132,0
2.442,-1864.173828125,-110.094169617,0
2.444,-1787.278930664,-25.821350098,0
2.446,-1726.682495117,27.046926498,0
2.448,-1681.131225586,56.464519501,0
2.450,-1657.802856445,62.060344696,0
2.452,-1657.470458984,48.527034760,0
2.454,-1653.419799805,40.893234253,0
2.456,-1696.280029297,-1.529799581,0
2.458,-1757.565917969,-48.856086731,0
2.460,-1793.689208984,-66.094177246,0
2.462,-1789.439941406,-48.100933075,0
2.464,-1756.247436523,-11.595284462,0
2.466,-1708.286132813,28.284309387,0
2.468,-1628.751098633,83.858322144,0
2.470,-1616.103271484,75.059417725,0
2.472,-1686.111694336,3.928513765,0
2.474,-1733.449096680,-33.762046814,0
2.476,-1824.062866211,-96.735481262,0
2.478,-1865.793212891,-107.694282532,0
2.480,-1781.912353516,-18.521251678,0
2.482,-1738.105712891,19.666101456,0
2.484,-1718.962524414,30.184629440,0
2.486,-1661.459716797,68.200454712,0
2.488,-1630.253906250,77.314956665,0
2.490,-1641.718505859,51.216323853,0
2.492,-1661.391723633,24.533145905,0
2.494,-1676.679687500,7.190613270,0
2.496,-1685.161132813,-1.003931642,0
2.498,-1671.547973633,9.807006836,0
2.500,-1641.727416992,30.821041107,0
2.502,-1637.471679688,27.281618118,0
2.504,-1648.414184570,12.708016396,0
2.506,-1660.787841797,0.260081261,0
2.508,-1693.397094727,-25.160133362,0
2.510,-1710.338134766,-32.744915009,0
2.512,-1702.482421875,-19.358047485,0
2.514,-1667.981323242,11.777745247,0
2.516,-1631.103759766,37.842590332,0
2.518,-1624.225585938,34.782360077,0
2.520,-1635.889526367,17.980720520,0
2.522,-1685.333862305,-24.471347809,0
2.524,-1735.676757813,-58.188102722,0
2.526,-1745.268798828,-52.717247009,0
2.528,-1719.099243164,-20.647924423,0
2.530,-1729.547119141,-24.185314178,0
2.532,-1735.186523438,-23.196660995,0
2.534,-1694.933349609,13.265965462,0
2.536,-1678.505371094,23.094972610,0
2.538,-1676.221069336,19.739225388,0
2.540,-1672.511352539,18.237802505,0
2.542,-1652.610229492,29.663217545,0
2.544,-1631.709716797,39.326835632,0
2.546,-1627.709716797,33.698249817,0
2.548,-1632.443115234,22.527864456,0
2.550,-1667.009887695,-9.363474846,0
2.552,-1678.542236328,-16.252084732,0
2.554,-1647.579467773,11.441480637,0
2.556,-1621.641967773,29.072237015,0
2.558,-1599.855468750,39.556243896,0
2.560,-1618.984619141,15.887519836,0
2.562,-1657.462768555,-17.570234299,0
2.564,-1701.517211914,-47.929740906,0
2.566,-1697.487915039,-34.144256592,0
2.568,-1637.309326172,20.248575211,0
2.570,-1627.138305664,23.659427643,0
2.572,-1642.076416016,6.783134937,0
2.574,-1650.862304688,-1.557670712,0
2.576,-1678.321411133,-22.568326950,0
2.578,-1669.202880859,-10.460751534,0
2.580,-1635.982421875,17.701684952,0
2.582,-1637.474731445,12.607149124,0
2.584,-1641.609008789,6.589941502,0
2.586,-1632.479858398,12.225789070,0
2.588,-1636.953125000,6.029642105,0
2.590,-1660.509033203,-13.631353378,0
2.592,-1680.894042969,-26.456768036,0
2.594,-1666.805908203,-9.619974136,0
2.596,-1641.669067383,12.068518639,0
2.598,-1659.004760742,-4.096641541,0
2.600,-1738.887939453,-65.316741943,0
2.602,-1797.817016602,-96.634437561,0
2.604,-1778.831420898,-60.392742157,0
2.606,-1721.001708984,-1.993386269,0
2.608,-1700.518798828,14.380536079,0
2.610,-1713.478027344,1.105433702,0
2.612,-1743.500244141,-22.490558624,0
2.614,-1798.588256836,-60.338088989,0
2.616,-1792.566650391,-42.245582581,0
2.618,-1714.500732422,27.859817505,0
2.620,-1580.625000000,125.792701721,0
2.622,-1407.166503906,232.747924805,0
2.624,-1198.134521484,343.602111816,0
2.626,-945.658386230,463.610443115,0
2.628,-645.995300293,593.649475098,0
2.630,-321.692352295,713.953735352,0
2.632,-117.525878906,714.084228516,0
2.634,-10.316666603,638.775451660,0
2.636,60.776966095,552.113281250,0
2.638,36.002944946,410.147399902,0
2.640,-37.370830536,261.931640625,0
2.642,-120.591255188,138.995819092,0
2.644,-188.872634888,54.999401093,0
2.646,-253.352539063,-7.373623371,0
2.648,-410.301208496,-127.804588318,0
2.650,-574.767272949,-227.318634033,0
2.652,-679.770446777,-258.469177246,0
2.654,-805.760986328,-299.020355225,0
2.656,-959.534606934,-352.168487549,0
2.658,-1082.003173828,-369.157409668,0
2.660,-1172.360107422,-357.395324707,0
2.662,-1256.107055664,-343.106201172,0
2.664,-1327.467041016,-322.358489990,0
2.666,-1360.295532227,-276.252960205,0
2.668,-1411.682128906,-254.827438354,0
2.670,-1471.567626953,-244.773498535,0
2.672,-1480.986083984,-197.702346802,0
2.674,-1462.485229492,-139.377059937,0
2.676,-1464.056884766,-109.625381470,0
2.678,-1477.802490234,-95.953979492,0
2.680,-1487.140258789,-81.892486572,0
2.682,-1510.179809570,-81.612785339,0
2.684,-1527.501220703,-76.947814941,0
2.686,-1515.481933594,-50.499263763,0
2.688,-1531.537841797,-51.764469147,0
2.690,-1545.520141602,-51.135776520,0
2.692,-1540.927124023,-36.199451447,0
2.694,-1570.062255859,-50.815086365,0
2.696,-1572.221557617,-41.201789856,0
2.698,-1551.754394531,-16.126670837,0
2.700,-1521.226684570,11.200587273,0
2.702,-1483.469360352,38.077922821,0
2.704,-1496.636230469,19.375051498,0
2.706,-1529.649414063,-10.607333183,0
2.708,-1549.233154297,-23.481637955,0
2.710,-1552.636352539,-20.910140991,0
2.712,-1558.671997070,-20.957592010,0
2.714,-1563.949829102,-20.405061722,0
2.716,-1581.046142578,-29.167335510,0
2.718,-1628.937133789,-59.933483124,0
2.720,-1636.209716797,-52.270687103,0
2.722,-1553.701293945,23.517930984,0
2.724,-1490.107910156,67.752357483,0
2.726,-1532.328369141,19.857820511,0
2.728,-1545.417724609,5.264317513,0
2.730,-1534.320068359,12.725815773,0
2.732,-1547.912231445,-0.673764944,0
2.734,-1502.631347656,34.693954468,0
2.736,-1464.770874023,56.430458069,0
2.738,-1519.958862305,0.966387987,0
2.740,-1580.440307617,-46.288871765,0
2.742,-1596.200805664,-48.260002136,0
2.744,-1610.775878906,-48.871116638,0
2.746,-1580.937255859,-14.802820206,0
2.748,-1554.297363281,9.206480026,0
2.750,-1567.324096680,-2.971300840,0
2.752,-1572.620117188,-6.430086136,0
2.754,-1573.966064453,-6.047909737,0
2.756,-1561.765502930,4.785316944,0
2.758,-1543.691772461,17.779029846,0
2.760,-1534.118652344,21.273601532,0
2.762,-1539.801391602,12.126134872,0
2.764,-1548.114501953,2.965645552,0
2.766,-1540.189086914,8.470656395,0
2.768,-1531.264770508,13.529236794,0
2.770,-1522.268554688,17.519573212,0
2.772,-1511.161376953,22.265024185,0
2.774,-1509.621459961,18.514682770,0
2.776,-1536.254394531,-6.314089298,0
2.778,-1584.948120117,-42.783329010,0
2.780,-1599.938720703,-44.934711456,0
2.782,-1595.316772461,-31.353977203,0
2.784,-1579.374511719,-11.986732483,0
2.786,-1543.602905273,18.499122620,0
2.788,-1529.604492188,25.275556564,0
2.790,-1514.712768555,31.240819931,0
2.792,-1495.516357422,39.228473663,0
2.794,-1506.983764648,21.591659546,0
2.796,-1524.228027344,3.381234407,0
2.798,-1536.498901367,-6.914053440,0
2.800,-1536.111206055,-5.076005459,0
2.802,-1503.422607422,21.476179123,0
2.804,-1497.407958984,21.381462097,0
2.806,-1530.521362305,-9.124674797,0
2.808,-1587.645507813,-51.526233673,0
2.810,-1633.533325195,-75.765541077,0
2.812,-1616.990112305,-46.061180115,0
2.814,-1572.651611328,-1.339821458,0
2.816,-1558.085449219,10.286973953,0
2.818,-1582.595581055,-11.062314987,0
2.820,-1607.624267578,-28.070396423,0
2.822,-1587.109497070,-5.876512051,0
2.824,-1538.947387695,32.888385773,0
2.826,-1528.001464844,34.092849731,0
2.828,-1544.393798828,13.766962051,0
2.830,-1535.280273438,17.795663834,0
2.832,-1533.169921875,15.482230186,0
2.834,-1541.511718750,5.553618431,0
2.836,-1566.285522461,-14.948796272,0
2.838,-1607.012817383,-43.303096771,0
2.840,-1628.089233398,-50.072284698,0
2.842,-1624.779296875,-36.370277405,0
2.844,-1575.610473633,9.954362869,0
2.846,-1529.761474609,43.402050018,0
2.848,-1558.739990234,11.218112946,0
2.850,-1592.069213867,-17.197271347,0
2.852,-1620.326660156,-35.353271484,0
2.854,-1645.106689453,-46.769687653,0
2.856,-1617.115112305,-14.605012894,0
2.858,-1592.812866211,7.542201042,0
2.860,-1579.341186523,16.343849182,0
2.862,-1543.738159180,40.402687073,0
2.864,-1543.380615234,31.701957703,0
2.866,-1575.401367188,-0.247971967,0
2.868,-1623.049438477,-37.251956940,0
2.870,-1663.257080078,-60.245563507,0
2.872,-1637.961914063,-27.183279037,0
2.874,-1569.917602539,31.780385971,0
2.876,-1536.006591797,51.092655182,0
2.878,-1545.738159180,32.169315338,0
2.880,-1559.348754883,14.434310913,0
2.882,-1556.941894531,13.098530769,0
2.884,-1548.424072266,16.812469482,0
2.886,-1563.158325195,1.616383195,0
2.888,-1592.147705078,-21.289806366,0
2.890,-1625.221557617,-42.282287598,0
2.892,-1657.317749023,-57.849231720,0
2.894,-1648.551513672,-38.175090790,0
2.896,-1619.158447266,-6.830435276,0
2.898,-1597.019531250,11.906447411,0
2.900,-1585.200195313,18.453210831,0
2.902,-1580.911132813,17.688150406,0
2.904,-1580.900878906,13.765274048,0
2.906,-1596.432617188,-1.373884082,0
2.908,-1589.273925781,4.499188900,0
2.910,-1579.132202148,11.387265205,0
2.912,-1605.770385742,-11.861683846,0
2.914,-1603.681640625,-7.601085663,0
2.916,-1591.905151367,3.247478962,0
2.918,-1595.411865234,-0.201652169,0
2.920,-1590.751708984,3.467683792,0
2.922,-1593.192138672,0.799020767,0
2.924,-1618.372558594,-18.963119507,0
2.926,-1630.952392578,-24.533020020,0
2.928,-1606.416259766,0.002352153,0
2.930,-1575.571166992,23.992172241,0
2.932,-1555.345214844,34.391479492,0
2.934,-1547.457519531,32.883338928,0
2.936,-1552.458129883,21.686306000,0
2.938,-1578.690673828,-3.535923004,0
2.940,-1621.948242188,-36.394508362,0
2.942,-1646.541137695,-47.433986664,0
2.944,-1650.512329102,-39.981330872,0
2.946,-1629.309692383,-14.605444908,0
2.948,-1611.026977539,2.860038280,0
2.950,-1628.662353516,-11.491764069,0
2.952,-1642.588989258,-19.769617081,0
2.954,-1623.786987305,-0.752543688,0
2.956,-1615.099609375,6.171480656,0
2.958,-1608.838745117,9.669472694,0
2.960,-1575.814697266,33.205570221,0
2.962,-1561.767944336,36.751354218,0
2.964,-1603.119384766,-3.577826262,0
2.966,-1636.867309570,-29.030738831,0
2.968,-1615.345825195,-5.840415001,0
2.970,-1595.257568359,11.081535339,0
2.972,-1598.256835938,6.286072731,0
2.974,-1615.855102539,-8.798295975,0
2.976,-1649.900756836,-33.322631836,0
2.978,-1658.880493164,-32.901416779,0
2.980,-1608.387084961,13.682532310,0
2.982,-1557.748901367,50.026573181,0
2.984,-1572.611938477,27.349023819,0
2.986,-1593.377563477,5.120347977,0
2.988,-1591.215820313,5.663840771,0
2.990,-1621.508544922,-19.155624390,0
2.992,-1638.946533203,-28.461320877,0
2.994,-1609.011962891,1.145892739,0
2.996,-1594.603271484,12.097859383,0
2.998,-1602.139160156,3.548152208,0
3.000,-1597.096679688,6.681459427,0
3.002,-1593.091430664,8.311805725,0
3.004,-1579.895263672,16.728225708,0
3.006,-1567.895874023,22.343370438,0
3.008,-1589.262573242,0.759672225,0
3.010,-1610.125732422,-15.635836601,0
3.012,-1618.205200195,-18.445045471,0
3.014,-1607.401367188,-5.943076611,0
3.016,-1566.714843750,27.022298813,0
3.018,-1543.877929688,38.778964996,0
3.020,-1567.501708984,11.787220955,0
3.022,-1590.877563477,-9.013350487,0
3.024,-1596.619873047,-11.476417542,0
3.026,-1603.735717773,-14.460513115,0
3.028,-1619.263061523,-23.323511124,0
3.030,-1632.063476563,-28.096050262,0
3.032,-1642.154907227,-29.700960159,0
3.034,-1641.137451172,-22.309160233,0
3.036,-1623.869262695,-3.920718193,0
3.038,-1611.356079102,6.682991982,0
3.040,-1597.072509766,16.307050705,0
3.042,-1583.595458984,23.165197372,0
3.044,-1584.451904297,17.350946426,0
3.046,-1592.346435547,7.354889870,0
3.048,-1608.340454102,-6.719230175,0
3.050,-1621.746215820,-15.652525902,0
3.052,-1616.003417969,-7.707465649,0
3.054,-1603.714965820,3.562954903,0
3.056,-1598.559936523,6.780591011,0
3.058,-1599.032470703,4.906176567,0
3.060,-1600.021850586,3.046297312,0
3.062,-1583.079956055,15.546228409,0
3.064,-1573.208740234,19.768850327,0
3.066,-1580.198486328,9.939151764,0
3.068,-1597.844116211,-5.993790627,0
3.070,-1633.505493164,-32.398109436,0
3.072,-1635.347778320,-26.631010056,0
3.074,-1605.411376953,2.570794106,0
3.076,-1597.025146484,8.522047043,0
3.078,-1607.616455078,-1.609386563,0
3.080,-1613.440307617,-5.781359673,0
3.082,-1617.520507813,-7.670033932,0
3.084,-1606.833496094,2.346541643,0
3.086,-1573.387207031,27.838531494,0
3.088,-1569.851074219,24.402122498,0
3.090,-1595.057373047,-0.625387788,0
3.092,-1632.505859375,-29.612693787,0
3.094,-1671.413940430,-53.293251038,0
3.096,-1679.960205078,-48.096706390,0
3.098,-1636.431152344,-3.552580118,0
3.100,-1569.890014648,48.990447998,0
3.102,-1567.940795898,39.619255066,0
3.104,-1592.232055664,11.921560287,0
3.106,-1587.238281250,13.156240463,0
3.108,-1600.344238281,0.039109997,0
3.110,-1611.700927734,-8.802511215,0
3.112,-1620.157104492,-13.423205376,0
3.114,-1641.926147461,-27.371402740,0
3.116,-1632.349731445,-13.840347290,0
3.118,-1616.781738281,1.343691468,0
3.120,-1636.209960938,-14.065554619,0
3.122,-1632.552856445,-8.095409393,0
3.124,-1606.379028320,14.060878754,0
3.126,-1597.672363281,17.707809448,0
3.128,-1581.647583008,26.236137390,0
3.130,-1573.277709961,26.915466309,0
3.132,-1601.054931641,-0.670240343,0
3.134,-1629.871582031,-22.933982849,0
3.136,-1660.748291016,-41.852252960,0
3.138,-1670.125732422,-39.844726563,0
3.140,-1615.192626953,11.735201836,0
3.142,-1567.302368164,46.374748230,0
3.144,-1568.122924805,35.430564880,0
3.146,-1587.443481445,12.529886246,0
3.148,-1622.010253906,-17.139585495,0
3.150,-1651.274291992,-36.091194153,0
3.152,-1653.313354492,-29.656480789,0
3.154,-1658.396240234,-27.019195557,0
3.156,-1661.282958984,-23.259874344,0
3.158,-1649.156616211,-8.659317970,0
3.160,-1650.424194336,-7.720819473,0
3.162,-1650.124511719,-5.771867752,0
3.164,-1627.225219727,13.321163177,0
3.166,-1622.419433594,14.098537445,0
3.168,-1645.714111328,-7.152443886,0
3.170,-1677.633544922,-30.388881683,0
3.172,-1705.976196289,-45.679458618,0
3.174,-1674.368774414,-10.944815636,0
3.176,-1627.020019531,28.313861847,0
3.178,-1625.923217773,22.874666214,0
3.180,-1610.033325195,30.149808884,0
3.182,-1588.601318359,40.118667603,0
3.184,-1611.566040039,13.341734886,0
3.186,-1638.240966797,-10.370054245,0
3.188,-1637.735473633,-7.672335625,0
3.190,-1619.812255859,7.972767353,0
3.192,-1620.657714844,5.543419361,0
3.194,-1643.382934570,-13.363502502,0
3.196,-1663.390869141,-25.955230713,0
3.198,-1697.236206055,-46.510951996,0
3.200,-1712.735351563,-48.229454041,0
3.202,-1686.529052734,-17.128879547,0
3.204,-1651.310180664,14.069785118,0
3.206,-1606.856445313,45.517719269,0
3.208,-1573.418823242,61.408939362,0
3.210,-1567.783081055,52.145168304,0
3.212,-1585.446289063,26.818994522,0
3.214,-1594.481201172,13.831868172,0
3.216,-1592.499511719,12.299223900,0
3.218,-1603.078613281,1.337894678,0
3.220,-1603.591674805,0.641515791,0
3.222,-1586.228271484,14.003642082,0
3.224,-1574.942749023,19.669120789,0
3.226,-1571.619018555,17.883123398,0
3.228,-1576.675415039,9.976151466,0
3.230,-1591.092529297,-3.454033136,0
3.232,-1592.945556641,-4.127676964,0
3.234,-1587.830322266,0.768120229,0
3.236,-1601.443115234,-9.990180016,0
3.238,-1601.512329102,-7.823860168,0
3.240,-1577.165039063,12.851404190,0
3.242,-1558.628173828,24.412755966,0
3.244,-1551.521240234,24.515041351,0
3.246,-1570.650512695,4.188875198,0
3.248,-1609.440917969,-26.911935806,0
3.250,-1624.114135742,-32.343593597,0
3.252,-1634.080566406,-32.907436371,0
3.254,-1653.680175781,-40.838203430,0
3.256,-1630.125000000,-13.442247391,0
3.258,-1601.388916016,11.895076752,0
3.260,-1598.566162109,11.447039604,0
3.262,-1591.500610352,14.398486137,0
3.264,-1593.307861328,9.793085098,0
3.266,-1592.440307617,8.291501045,0
3.268,-1601.978393555,-0.969595432,0
3.270,-1651.951171875,-39.621280670,0
3.272,-1668.978759766,-44.059711456,0
3.274,-1618.089111328,5.312160492,0
3.276,-1599.206909180,18.817571640,0
3.278,-1615.979248047,1.590689063,0
3.280,-1616.196899414,1.067938924,0
3.282,-1617.915161133,-0.505827546,0
3.284,-1639.660156250,-17.305921555,0
3.286,-1632.325683594,-7.755517960,0
3.288,-1611.877929688,9.871603012,0
3.290,-1625.739868164,-3.103482485,0
3.292,-1628.988281250,-4.940381050,0
3.294,-1622.643554688,1.092272282,0
3.296,-1612.359741211,8.848002434,0
3.298,-1608.028198242,10.250571251,0
3.300,-1652.412841797,-26.548364639,0
3.302,-1669.573364258,-33.995338440,0
3.304,-1639.329467773,-2.917761087,0
3.306,-1629.879760742,5.080357075,0
3.308,-1627.318725586,5.943157673,0
3.310,-1630.902465820,1.835140228,0
3.312,-1657.195556641,-19.022642136,0
3.314,-1693.704101563,-43.190307617,0
3.316,-1724.237304688,-57.339778900,0
3.318,-1734.853759766,-52.854141235,0
3.320,-1747.367309570,-50.840908051,0
3.322,-1784.545898438,-68.458709717,0
3.324,-1815.730712891,-77.499511719,0
3.326,-1820.179077148,-63.736427307,0
3.328,-1812.756347656,-43.799007416,0
3.330,-1822.530273438,-41.667240143,0
3.332,-1843.870849609,-49.005485535,0
3.334,-1832.805786133,-29.508768082,0
3.336,-1839.958129883,-28.513853073,0
3.338,-1889.031860352,-60.345169067,0
3.340,-1894.201660156,-50.955383301,0
3.342,-1805.229980469,29.567876816,0
3.344,-1649.841796875,143.852813721,0
3.346,-1427.964233398,284.453308105,0
3.348,-1165.589599609,425.305053711,0
3.350,-905.831665039,532.819885254,0
3.352,-578.628845215,668.897827148,0
3.354,-221.193313599,798.248901367,0
3.356,-3.649723291,790.050598145,0
3.358,95.290237427,691.428100586,0
3.360,166.156295776,592.887756348,0
3.362,120.122070313,425.325012207,0
3.364,-75.271110535,178.833541870,0
3.366,-226.440429688,21.516345978,0
3.368,-311.396697998,-49.341526031,0
3.370,-451.726654053,-147.520339966,0
3.372,-587.287963867,-220.171737671,0
3.374,-773.414367676,-316.005615234,0
3.376,-993.878601074,-417.248870850,0
3.378,-1134.286254883,-433.727233887,0
3.380,-1276.795532227,-448.178161621,0
3.382,-1420.328735352,-460.213989258,0
3.384,-1501.801513672,-421.306457520,0
3.386,-1565.934692383,-377.559204102,0
3.388,-1611.833374023,-329.351928711,0
3.390,-1641.255126953,-279.042510986,0
3.392,-1670.093383789,-239.459701538,0
3.394,-1700.388549805,-209.806671143,0
3.396,-1729.493774414,-185.817947388,0
3.398,-1753.738403320,-163.379867554,0
3.400,-1791.764526367,-156.647094727,0
3.402,-1819.229370117,-143.196258545,0
3.404,-1818.634277344,-110.910583496,0
3.406,-1828.962646484,-94.295738220,0
3.408,-1840.354248047,-82.200164795,0
3.410,-1838.554565430,-62.532978058,0
3.412,-1843.250732422,-52.288578033,0
3.414,-1851.182617188,-46.837532043,0
3.416,-1860.972778320,-44.043266296,0
3.418,-1876.265380859,-46.149452209,0
3.420,-1881.306884766,-39.814674377,0
3.422,-1888.871826172,-36.850326538,0
3.424,-1907.567871094,-43.202171326,0
3.426,-1892.339843750,-21.757377625,0
3.428,-1873.975097656,-2.638728619,0
3.430,-1875.394165039,-3.156022549,0
3.432,-1883.315917969,-8.615962029,0
3.434,-1898.621093750,-18.605058670,0
3.436,-1905.058715820,-19.477418900,0
3.438,-1900.638061523,-11.710591316,0
3.440,-1911.292236328,-17.394666672,0
3.442,-1913.417724609,-15.182151794,0
3.444,-1902.697509766,-3.470334291,0
3.446,-1916.064453125,-13.095456123,0
3.448,-1928.399658203,-19.779130936,0
3.450,-1918.946899414,-8.031546593,0
3.452,-1906.324340820,3.570746422,0
3.454,-1907.606689453,1.779881597,0
3.456,-1916.218505859,-5.313742161,0
3.458,-1920.456787109,-7.429211617,0
3.460,-1919.069091797,-4.698880672,0
3.462,-1917.809082031,-2.674698353,0
3.464,-1913.508666992,1.264432669,0
3.466,-1909.702148438,3.944042921,0
3.468,-1918.762939453,-3.979639769,0
3.470,-1930.707397461,-12.385236740,0
3.472,-1917.873168945,0.349167645,0
3.474,-1900.322509766,13.921978951,0
3.476,-1901.065429688,10.250193596,0
3.478,-1909.662597656,1.285673380,0
3.480,-1915.239501953,-3.337543726,0
3.482,-1917.886718750,-4.654735565,0
3.484,-1919.834106445,-5.134993076,0
3.486,-1918.066406250,-2.618883610,0
3.488,-1899.928710938,12.069991112,0
3.490,-1887.374023438,19.152315140,0
3.492,-1886.854614258,15.299942017,0
3.494,-1887.740600586,11.210776329,0
3.496,-1895.331909180,2.815068722,0
3.498,-1895.324707031,2.195091963,0
3.500,-1895.720581055,1.399326921,0
3.502,-1895.389526367,1.345833659,0
3.504,-1890.869262695,4.562464714,0
3.506,-1885.034301758,8.086803436,0
3.508,-1889.062744141,3.156494617,0
3.510,-1885.352661133,5.340540409,0
3.512,-1878.179443359,9.732858658,0
3.514,-1875.561157227,9.606319427,0
3.516,-1876.715576172,6.573615074,0
3.518,-1877.509399414,4.495326519,0
3.520,-1882.960571289,-0.743465781,0
3.522,-1887.707275391,-4.270004272,0
3.524,-1883.918457031,-0.374321789,0
3.526,-1877.681030273,4.560119152,0
3.528,-1870.878662109,8.837405205,0
3.530,-1867.394287109,9.583481789,0
3.532,-1869.925170898,5.485281944,0
3.534,-1872.540527344,2.232151747,0
3.536,-1864.327880859,8.123641014,0
3.538,-1865.895141602,5.099336147,0
3.540,-1875.485473633,-3.492975712,0
3.542,-1869.773681641,1.725714207,0
3.544,-1862.454101563,7.035150528,0
3.546,-1858.123046875,8.840301514,0
3.548,-1844.250244141,17.665485382,0
3.550,-1843.657592773,14.200620651,0
3.552,-1851.354125977,5.058648109,0
3.554,-1853.326782227,2.400212288,0
3.556,-1857.219482422,-1.160857439,0
3.558,-1847.238891602,6.859766483,0
3.560,-1841.328491211,9.932211876,0
3.562,-1859.117553711,-6.110877514,0
3.564,-1872.900634766,-15.472863197,0
3.566,-1866.651855469,-7.174170017,0
3.568,-1862.670166016,-2.483040333,0
3.570,-1862.180908203,-1.550690889,0
3.572,-1859.288574219,1.043518782,0
3.574,-1848.979370117,8.829771042,0
3.576,-1839.257812500,14.428619385,0
3.578,-1836.780761719,13.148733139,0
3.580,-1834.019775391,12.374024391,0
3.582,-1835.537109375,8.443967819,0
3.584,-1845.263305664,-0.997269452,0
3.586,-1849.712036133,-4.235756397,0
3.588,-1857.538208008,-9.381373405,0
3.590,-1865.808715820,-13.729016304,0
3.592,-1857.546752930,-4.252137661,0
3.594,-1836.594360352,12.988991737,0
3.596,-1823.073974609,20.618125916,0
3.598,-1821.164550781,17.521200180,0
3.600,-1816.951416016,16.904253006,0
3.602,-1808.255126953,19.911262512,0
3.604,-1802.160888672,20.226234436,0
3.606,-1809.518310547,10.008952141,0
3.608,-1828.489135742,-6.970313072,0
3.610,-1839.592407227,-14.056999207,0
3.612,-1832.156250000,-5.149486065,0
3.614,-1810.952148438,12.486775398,0
3.616,-1794.204589844,22.737478256,0
3.618,-1799.087646484,13.886666298,0
3.620,-1805.849975586,5.541028023,0
3.622,-1812.791503906,-1.089214563,0
3.624,-1845.645385742,-26.399908066,0
3.626,-1890.254882813,-55.228775024,0
3.628,-1915.108276367,-62.285385132,0
3.630,-1902.917114258,-38.961593628,0
3.632,-1861.052368164,2.257960796,0
3.634,-1846.188232422,13.317037582,0
3.636,-1856.027954102,2.704480886,0
3.638,-1865.965576172,-5.625695229,0
3.640,-1864.133544922,-2.950619459,0
3.642,-1861.276367188,-0.072619453,0
3.644,-1861.183715820,0.015580242,0
3.646,-1856.777343750,3.439270020,0
3.648,-1853.154296875,5.492861271,0
3.650,-1856.559082031,1.623985767,0
3.652,-1860.097167969,-1.488742948,0
3.654,-1852.429565430,4.805727482,0
3.656,-1846.194458008,8.587238312,0
3.658,-1842.044311523,9.906733513,0
3.660,-1825.348754883,20.690345764,0
3.662,-1830.351196289,12.201614380,0
3.664,-1869.648559570,-21.074213028,0
3.666,-1921.424316406,-56.660411835,0
3.668,-1943.479248047,-61.222217560,0
3.670,-1920.572631836,-29.800645828,0
3.672,-1909.412719727,-14.498168945,0
3.674,-1927.008911133,-24.961917877,0
3.676,-1935.211303711,-25.794137955,0
3.678,-1922.586059570,-10.242360115,0
3.680,-1910.787963867,1.209965587,0
3.682,-1909.703857422,1.784307361,0
3.684,-1897.327636719,11.013549805,0
3.686,-1882.427856445,20.154630661,0
3.688,-1872.357910156,23.507663727,0
3.690,-1865.561645508,23.569442749,0
3.692,-1876.819335938,9.575693130,0
3.694,-1892.030883789,-4.383405209,0
3.696,-1889.166137695,-1.181169987,0
3.698,-1894.302612305,-4.913628578,0
3.700,-1900.159545898,-8.377063751,0
3.702,-1906.636230469,-11.552747726,0
3.704,-1943.856689453,-37.934253693,0
3.706,-1973.321533203,-52.420841217,0
3.708,-1942.989868164,-17.180181503,0
3.710,-1916.412109375,7.309066772,0
3.712,-1916.381835938,5.708332539,0
3.714,-1912.912963867,7.137733936,0
3.716,-1885.159790039,27.137060165,0
3.718,-1873.316040039,30.318029404,0
3.720,-1915.031372070,-8.864481926,0
3.722,-1958.358764648,-40.593170166,0
3.724,-1972.730957031,-42.750255585,0
3.726,-1944.696777344,-11.445728302,0
3.728,-1909.460571289,18.503513336,0
3.730,-1904.806274414,18.011331558,0
3.732,-1921.352783203,1.139325738,0
3.734,-1920.964721680,1.187918782,0
3.736,-1923.508911133,-1.054872632,0
3.738,-1957.749145508,-27.451335907,0
3.740,-1964.036132813,-26.240581512,0
3.742,-1940.607299805,-2.186887026,0
3.744,-1938.902343750,-0.374843836,0
3.746,-1933.706665039,3.749500990,0
3.748,-1914.303100586,18.007690430,0
3.750,-1902.632324219,23.082937241,0
3.752,-1911.717529297,10.887017250,0
3.754,-1916.899536133,4.437164307,0
3.756,-1927.430053711,-4.739265919,0
3.758,-1932.710449219,-7.792954445,0
3.760,-1915.858886719,7.045534611,0
3.762,-1916.892089844,4.676168919,0
3.764,-1944.208007813,-17.608455658,0
3.766,-1952.894165039,-20.451110840,0
3.768,-1951.164916992,-14.561204910,0
3.770,-1957.086791992,-15.931077003,0
3.772,-1959.176757813,-14.016252518,0
3.774,-1965.401367188,-15.742635727,0
3.776,-1962.073120117,-9.655517578,0
3.778,-1928.220214844,18.819932938,0
3.780,-1907.194091797,30.990934372,0
3.782,-1921.486206055,12.987826347,0
3.784,-1951.198242188,-13.007574081,0
3.786,-2011.687500000,-57.163436890,0
3.788,-2048.399902344,-73.013534546,0
3.790,-2012.942382813,-29.209869385,0
3.792,-1985.561279297,-1.422375679,0
3.794,-1979.709960938,3.444676638,0
3.796,-1956.179809570,20.980119705,0
3.798,-1936.743408203,31.434722900,0
3.800,-1927.579956055,31.575929642,0
3.802,-1928.861938477,23.561685562,0
3.804,-1932.916015625,15.172393799,0
3.806,-1939.963500977,6.319209576,0
3.808,-1954.061157227,-6.049834728,0
3.810,-1986.073730469,-29.603658676,0
3.812,-2019.287841797,-48.857624054,0
3.814,-2005.432495117,-27.223674774,0
3.816,-1980.157592773,-1.515660048,0
3.818,-1983.390136719,-3.693029404,0
3.820,-1993.262084961,-10.550335884,0
3.822,-2006.559448242,-18.548059464,0
3.824,-1994.075561523,-4.716467857,0
3.826,-1978.890869141,8.141869545,0
3.828,-1992.067993164,-3.916269064,0
3.830,-1991.849609375,-2.876152754,0
3.832,-1994.032348633,-3.934605360,0
3.834,-2009.531860352,-15.115251541,0
3.836,-2023.488159180,-22.610874176,0
3.838,-2044.390136719,-33.842937469,0
3.840,-2044.083740234,-26.083633423,0
3.842,-2039.852294922,-16.995872498,0
3.844,-2027.181152344,-3.363693714,0
3.846,-2005.488769531,14.255538940,0
3.848,-1993.802490234,20.176673889,0
3.850,-1982.801513672,24.248960495,0
3.852,-1988.318359375,14.569196701,0
3.854,-1993.004638672,7.686677456,0
3.856,-1991.471435547,7.170910358,0
3.858,-2032.719238281,-26.503904343,0
3.860,-2072.132812500,-51.268516541,0
3.862,-2052.076904297,-24.276107788,0
3.864,-2030.691528320,-2.248362064,0
3.866,-2064.234619141,-27.837343216,0
3.868,-2103.521972656,-52.207405090,0
3.870,-2100.533691406,-38.281223297,0
3.872,-2078.900878906,-12.948462486,0
3.874,-2054.964843750,8.545770645,0
3.876,-2030.880493164,25.378608704,0
3.878,-2011.503295898,34.809593201,0
3.880,-2003.327148438,33.432960510,0
3.882,-1986.272338867,39.267738342,0
3.884,-1973.194946289,40.712341309,0
3.886,-1986.804931641,21.079313278,0
3.888,-1986.668579102,16.500928879,0
3.890,-1977.194335938,20.202598572,0
3.892,-1981.438354492,12.412128448,0
3.894,-1986.920654297,5.389739990,0
3.896,-1991.969604492,0.265040368,0
3.898,-2000.117919922,-6.131286144,0
3.900,-2031.003662109,-28.790672302,0
3.902,-2064.264160156,-48.261394501,0
3.904,-2063.361816406,-36.834384918,0
3.906,-2043.178955078,-12.951017380,0
3.908,-2029.285644531,0.732889175,0
3.910,-2032.015014648,-1.552812099,0
3.912,-2042.396362305,-9.281929970,0
3.914,-2056.641113281,-18.298315048,0
3.916,-2066.374755859,-21.802268982,0
3.918,-2072.411376953,-21.652360916,0
3.920,-2070.463623047,-15.325436592,0
3.922,-2057.739013672,-2.023018599,0
3.924,-2067.665771484,-9.294125557,0
3.926,-2098.144287109,-30.933725357,0
3.928,-2101.795654297,-26.899169922,0
3.930,-2088.872314453,-10.870116234,0
3.932,-2098.134033203,-15.657832146,0
3.934,-2112.012451172,-22.972314835,0
3.936,-2121.570800781,-25.301372528,0
3.938,-2127.185058594,-24.045137405,0
3.940,-2127.032226563,-18.582700729,0
3.942,-2121.852294922,-10.424118042,0
3.944,-2096.411865234,11.679244041,0
3.946,-2076.739746094,24.384004593,0
3.948,-2071.577880859,22.979877472,0
3.950,-2070.953857422,18.358213425,0
3.952,-2082.099853516,5.609458923,0
3.954,-2105.179931641,-13.588082314,0
3.956,-2117.464843750,-20.123115540,0
3.958,-2132.318603516,-27.204004288,0
3.960,-2157.050048828,-40.393539429,0
3.962,-2151.143798828,-26.823091507,0
3.964,-2139.722412109,-11.979100227,0
3.966,-2143.880126953,-12.550594330,0
3.968,-2136.114990234,-3.722001314,0
3.970,-2118.084960938,11.128334045,0
3.972,-2122.643066406,5.110050678,0
3.974,-2136.407226563,-6.730916500,0
3.976,-2129.288574219,0.301592201,0
3.978,-2133.050292969,-2.691102743,0
3.980,-2134.112060547,-2.918962479,0
3.982,-2113.445312500,13.803681374,0
3.984,-2117.045166016,7.936228275,0
3.986,-2140.179931641,-11.820902824,0
3.988,-2178.092529297,-38.681079865,0
3.990,-2228.398193359,-69.210990906,0
3.992,-2259.635742188,-78.125709534,0
3.994,-2267.072753906,-66.547866821,0
3.996,-2260.381347656,-46.554481506,0
3.998,-2266.432128906,-40.914722443,0
4.000,-2299.535888672,-57.569084167,0
4.002,-2325.295410156,-64.810287476,0
4.004,-2329.003906250,-53.291809082,0
4.006,-2324.766113281,-38.152473450,0
4.008,-2312.193115234,-19.894910812,0
4.010,-2225.095458984,52.268131256,0
4.012,-2048.092041016,178.319885254,0
4.014,-1874.000244141,274.094512939,0
4.016,-1659.946044922,379.666290283,0
4.018,-1387.457153320,507.225189209,0
4.020,-1101.020751953,617.284301758,0
4.022,-798.206848145,715.622680664,0
4.024,-622.451049805,693.285339355,0
4.026,-550.212707520,595.399597168,0
4.028,-431.330780029,555.545043945,0
4.030,-433.590728760,430.327270508,0
4.032,-600.925903320,204.546768188,0
4.034,-773.762817383,24.662919998,0
4.036,-928.456420898,-101.133689880,0
4.038,-1021.340698242,-150.900878906,0
4.040,-1075.455322266,-159.454483032,0
4.042,-1184.157836914,-208.563827515,0
4.044,-1312.213500977,-261.811737061,0
4.046,-1422.584594727,-289.471771240,0
4.048,-1514.992187500,-297.013427734,0
4.050,-1612.011474609,-306.465881348,0
4.052,-1706.710449219,-312.013092041,0
4.054,-1766.354736328,-289.063140869,0
4.056,-1820.360107422,-266.827575684,0
4.058,-1876.399291992,-251.115325928,0
4.060,-1915.215087891,-225.499038696,0
4.062,-1954.236816406,-205.735687256,0
4.064,-1986.536987305,-185.136657715,0
4.066,-2005.176879883,-158.490798950,0
4.068,-2017.426025391,-132.795944214,0
4.070,-2022.543212891,-107.264434814,0
4.072,-2027.761474609,-87.485366821,0
4.074,-2033.861938477,-72.788024902,0
4.076,-2037.621948242,-59.536621094,0
4.078,-2048.801513672,-55.000789642,0
4.080,-2063.761230469,-54.412921906,0
4.082,-2073.365966797,-49.791027069,0
4.084,-2079.120361328,-43.201313019,0
4.086,-2077.243408203,-32.140838623,0
4.088,-2071.979980469,-20.904228210,0
4.090,-2068.207275391,-13.324372292,0
4.092,-2072.055419922,-13.356257439,0
4.094,-2080.001220703,-16.568037033,0
4.096,-2086.984375000,-18.317384720,0
4.098,-2098.087402344,-22.882310867,0
4.100,-2098.459228516,-18.086231232,0
4.102,-2095.221191406,-11.548520088,0
4.104,-2101.926757813,-14.197329521,0
4.106,-2112.356933594,-19.154466629,0
4.108,-2110.161376953,-13.190168381,0
4.110,-2103.640136719,-5.186797142,0
4.112,-2108.898193359,-8.123746872,0
4.114,-2112.215332031,-8.898297310,0
4.116,-2116.291259766,-10.090932846,0
4.118,-2120.890380859,-11.425510406,0
4.120,-2112.989990234,-2.741729259,0
4.122,-2108.453125000,1.396109223,0
4.124,-2107.521972656,1.810217738,0
4.126,-2106.705078125,2.043260574,0
4.128,-2105.581787109,2.462759972,0
4.130,-2109.921630859,-1.459878206,0
4.132,-2117.059082031,-6.686756611,0
4.134,-2126.262695313,-12.358967781,0
4.136,-2129.983154297,-12.506089211,0
4.138,-2118.930908203,-1.130679965,0
4.140,-2117.758300781,0.032492366,0
4.142,-2120.722656250,-2.280251503,0
4.144,-2124.482421875,-4.697740078,0
4.146,-2126.149902344,-4.950637817,0
4.148,-2123.122314453,-1.495639324,0
4.150,-2120.663818359,0.748790741,0
4.152,-2124.894531250,-2.708152056,0
4.154,-2130.218750000,-6.247280598,0
4.156,-2131.522705078,-5.873085022,0
4.158,-2123.590087891,1.601794720,0
4.160,-2119.151611328,4.698001385,0
4.162,-2126.916748047,-2.385587215,0
4.164,-2130.045166016,-4.288646221,0
4.166,-2126.710449219,-0.741923213,0
4.168,-2120.482910156,4.266651154,0
4.170,-2118.562011719,4.812321663,0
4.172,-2124.400390625,-0.797927380,0
4.174,-2131.398437500,-6.063428879,0
4.176,-2129.829101563,-3.495377541,0
4.178,-2125.831054688,0.390840262,0
4.180,-2120.014160156,4.828301430,0
4.182,-2119.943115234,3.810506105,0
4.184,-2119.914062500,2.986216545,0
4.186,-2118.352050781,3.537569284,0
4.188,-2119.554687500,1.815944076,0
4.190,-2117.502685547,3.008344412,0
4.192,-2110.695068359,7.634686947,0
4.194,-2119.516601563,-0.923075974,0
4.196,-2131.040039063,-9.680652618,0
4.198,-2133.652587891,-9.561185837,0
4.200,-2140.882812500,-13.059902191,0
4.202,-2144.550048828,-13.009718895,0
4.204,-2138.564208984,-5.463042736,0
4.206,-2139.821777344,-5.227084160,0
4.208,-2147.765380859,-10.243665695,0
4.210,-2141.683105469,-3.236582994,0
4.212,-2135.110351563,2.594820261,0
4.214,-2132.136718750,4.330834389,0
4.216,-2116.425292969,15.588268280,0
4.218,-2113.235839844,14.604649544,0
4.220,-2116.731201172,8.640542030,0
4.222,-2109.888916016,12.042083740,0
4.224,-2110.635742188,8.785003662,0
4.226,-2112.540771484,5.351054668,0
4.228,-2113.414794922,3.482120514,0
4.230,-2107.305664063,7.459697723,0
4.232,-2100.508544922,11.088576317,0
4.234,-2109.612304688,1.543623567,0
4.236,-2113.512451172,-1.832794428,0
4.238,-2117.294677734,-4.367159843,0
4.240,-2129.464843750,-12.862118721,0
4.242,-2133.727539063,-13.319157600,0
4.244,-2126.570312500,-4.792552948,0
4.246,-2121.883544922,-0.082333542,0
4.248,-2117.771240234,3.134440184,0
4.250,-2123.056396484,-1.672778249,0
4.252,-2128.506103516,-5.539704800,0
4.254,-2115.524414063,5.788155556,0
4.256,-2110.101074219,8.719881058,0
4.258,-2111.279296875,5.865636826,0
4.260,-2099.708984375,13.561240196,0
4.262,-2095.435302734,13.871315002,0
4.264,-2093.923339844,11.964639664,0
4.266,-2095.814697266,7.834717274,0
4.268,-2108.101074219,-3.462288857,0
4.270,-2114.447265625,-7.628819466,0
4.272,-2108.681640625,-1.449086189,0
4.274,-2115.884521484,-6.729310513,0
4.276,-2135.682617188,-20.632093430,0
4.278,-2150.779296875,-27.788650513,0
4.280,-2159.401367188,-28.319034576,0
4.282,-2162.563964844,-24.485431671,0
4.284,-2168.278564453,-23.488565445,0
4.286,-2179.088134766,-26.675964355,0
4.288,-2178.840820313,-20.555498123,0
4.290,-2179.284667969,-16.332567215,0
4.292,-2198.658691406,-27.771480560,0
4.294,-2215.807861328,-34.937831879,0
4.296,-2221.952880859,-31.952901840,0
4.298,-2221.677001953,-24.637367249,0
4.300,-2220.621093750,-18.340793610,0
4.302,-2223.539794922,-16.534954071,0
4.304,-2225.198730469,-14.150693893,0
4.306,-2229.865234375,-14.635340691,0
4.308,-2231.247558594,-12.458087921,0
4.310,-2219.613037109,-0.640412748,0
4.312,-2220.227783203,-0.976228237,0
4.314,-2224.015869141,-3.705651522,0
4.316,-2228.411132813,-6.300564289,0
4.318,-2230.363525391,-6.418868542,0
4.320,-2234.163574219,-7.947911263,0
4.322,-2239.945556641,-10.678746223,0
4.324,-2239.031250000,-7.594465256,0
4.326,-2240.194580078,-6.811617374,0
4.328,-2244.427734375,-8.590101242,0
4.330,-2239.857177734,-3.126421213,0
4.332,-2231.227294922,4.280465603,0
4.334,-2222.573242188,10.060103416,0
4.336,-2225.097412109,5.861135483,0
4.338,-2228.581542969,1.848794460,0
4.340,-2218.749023438,9.085415840,0
4.342,-2215.011962891,9.972878456,0
4.344,-2225.383300781,-0.309893638,0
4.346,-2226.716796875,-1.278133988,0
4.348,-2219.937255859,4.278757572,0
4.350,-2219.704833984,3.508672953,0
4.352,-2225.777343750,-1.994207740,0
4.354,-2226.244140625,-1.913948298,0
4.356,-2222.680908203,1.282683969,0
4.358,-2223.876220703,0.067900822,0
4.360,-2220.630615234,2.577128887,0
4.362,-2217.653808594,4.319685459,0
4.364,-2217.630371094,3.377938032,0
4.366,-2213.536621094,5.811300278,0
4.368,-2212.470214844,5.349275112,0
4.370,-2220.614013672,-2.173532963,0
4.372,-2220.525634766,-1.621685743,0
4.374,-2208.380371094,8.184770584,0
4.376,-2208.025146484,6.642220020,0
4.378,-2199.202636719,12.027962685,0
4.380,-2187.923583984,18.127458572,0
4.382,-2195.847656250,7.935868740,0
4.384,-2202.759765625,0.796286404,0
4.386,-2192.752685547,8.402438164,0
4.388,-2192.962158203,6.372244835,0
4.390,-2213.207763672,-10.790307999,0
4.392,-2215.004638672,-9.789921761,0
4.394,-2216.911621094,-9.097351074,0
4.396,-2223.900634766,-12.511460304,0
4.398,-2218.301513672,-5.376343250,0
4.400,-2213.897460938,-0.756058753,0
4.402,-2211.723632813,1.102647185,0
4.404,-2204.617919922,6.384134293,0
4.406,-2205.270507813,4.457836628,0
4.408,-2204.225341797,4.280050755,0
4.410,-2196.777343750,9.121775627,0
4.412,-2197.956298828,6.177595139,0
4.414,-2202.218017578,1.490219474,0
4.416,-2203.072265625,0.494554847,0
4.418,-2198.093750000,4.256783009,0
4.420,-2197.721923828,3.599921703,0
4.422,-2193.273437500,6.259750843,0
4.424,-2189.132812500,8.089159012,0
4.426,-2187.929199219,7.227542400,0
4.428,-2188.178710938,5.427294254,0
4.430,-2185.073486328,6.636427402,0
4.432,-2178.260986328,10.460174561,0
4.434,-2177.879150391,8.432577133,0
4.436,-2186.264648438,0.036523402,0
4.438,-2191.555908203,-4.086887836,0
4.440,-2195.607177734,-6.329603672,0
4.442,-2195.073730469,-4.508027554,0
4.444,-2190.125000000,0.342713773,0
4.446,-2187.661376953,2.182676077,0
4.448,-2186.509033203,2.593811274,0
4.450,-2185.774169922,2.589033127,0
4.452,-2189.756591797,-1.083827972,0
4.454,-2196.229980469,-5.877658367,0
4.456,-2202.056884766,-9.103516579,0
4.458,-2199.056884766,-4.747109890,0
4.460,-2204.633056641,-8.029083252,0
4.462,-2217.778076172,-16.468528748,0
4.464,-2217.342041016,-12.469675064,0
4.466,-2213.461425781,-6.680147171,0
4.468,-2206.078369141,0.546658039,0
4.470,-2193.195312500,10.445235252,0
4.472,-2188.364501953,11.881064415,0
4.474,-2192.403564453,6.099318504,0
4.476,-2208.957031250,-8.130816460,0
4.478,-2223.799316406,-17.867769241,0
4.480,-2227.322021484,-16.636793137,0
4.482,-2230.395996094,-15.330435753,0
4.484,-2232.308593750,-13.411151886,0
4.486,-2219.860839844,-0.749200165,0
4.488,-2211.449218750,5.959568024,0
4.490,-2217.834228516,-0.330875844,0
4.492,-2226.395263672,-6.915815353,0
4.494,-2226.469238281,-5.436413288,0
4.496,-2222.195556641,-0.904449344,0
4.498,-2228.512451172,-5.616543770,0
4.500,-2235.764892578,-10.009008408,0
4.502,-2233.541503906,-6.055398464,0
4.504,-2225.367675781,1.647701263,0
4.506,-2208.762451172,14.196368217,0
4.508,-2211.132324219,9.198362350,0
4.510,-2222.775634766,-1.901571989,0
4.512,-2211.357421875,7.401739597,0
4.514,-2207.508789063,8.750152588,0
4.516,-2216.978515625,-0.559675634,0
4.518,-2226.309570313,-7.692785263,0
4.520,-2237.267333984,-14.505622864,0
4.522,-2240.474121094,-13.776185989,0
4.524,-2239.416259766,-9.891895294,0
4.526,-2242.549804688,-10.130898476,0
4.528,-2241.712890625,-7.228401184,0
4.530,-2237.812988281,-2.588909864,0
4.532,-2232.590576172,2.048287392,0
4.534,-2234.225830078,0.321320355,0
4.536,-2243.505859375,-6.967850208,0
4.538,-2251.261474609,-11.451395988,0
4.540,-2248.066406250,-6.421636105,0
4.542,-2252.468261719,-8.418000221,0
4.544,-2269.611816406,-19.881120682,0
4.546,-2269.423339844,-15.316212654,0
4.548,-2271.025634766,-13.158709526,0
4.550,-2270.202392578,-9.594128609,0
4.552,-2253.244628906,5.727175713,0
4.554,-2259.804687500,-0.647639632,0
4.556,-2277.327392578,-14.132307053,0
4.558,-2276.647705078,-10.463179588,0
4.560,-2278.088623047,-9.258546829,0
4.562,-2279.393554688,-8.215889931,0
4.564,-2280.993652344,-7.634547234,0
4.566,-2280.882568359,-5.851613522,0
4.568,-2272.728759766,1.790678978,0
4.570,-2261.010742188,10.506665230,0
4.572,-2250.916992188,16.022180557,0
4.574,-2235.885253906,24.152750015,0
4.576,-2223.753906250,28.220726013,0
4.578,-2226.937744141,19.472717285,0
4.580,-2228.478271484,13.947193146,0
4.582,-2220.807617188,16.813709259,0
4.584,-2231.199951172,4.994349480,0
4.586,-2241.290527344,-3.963747740,0
4.588,-2238.397460938,-0.832695246,0
4.590,-2233.691894531,3.012170792,0
4.592,-2229.195556641,5.839871883,0
4.594,-2229.997314453,3.918483257,0
4.596,-2225.211669922,6.769741058,0
4.598,-2221.415771484,8.217588425,0
4.600,-2222.679687500,5.408346653,0
4.602,-2228.333007813,-0.190542981,0
4.604,-2234.277832031,-4.771792412,0
4.606,-2235.930419922,-4.996819019,0
4.608,-2250.937744141,-15.558551788,0
4.610,-2268.165771484,-25.500185013,0
4.612,-2278.436279297,-27.821409225,0
4.614,-2284.522460938,-26.372287750,0
4.616,-2282.661132813,-19.063827515,0
4.618,-2279.505615234,-12.372821808,0
4.620,-2284.284423828,-13.340025902,0
4.622,-2289.745605469,-14.623087883,0
4.624,-2288.166748047,-10.145280838,0
4.626,-2284.415039063,-4.972689629,0
4.628,-2284.475097656,-3.914335251,0
4.630,-2286.509033203,-4.626322746,0
4.632,-2289.810791016,-6.166233540,0
4.634,-2288.781250000,-3.995170593,0
4.636,-2292.982910156,-6.375224590,0
4.638,-2300.954345703,-11.158427238,0
4.640,-2306.367187500,-12.888516426,0
4.642,-2300.293457031,-5.300284863,0
4.644,-2302.753662109,-6.035983562,0
4.646,-2315.428710938,-14.552828789,0
4.648,-2322.023681641,-16.448072433,0
4.650,-2326.702636719,-16.431859970,0
4.652,-2332.891845703,-17.593959808,0
4.654,-2336.583984375,-16.555681229,0
4.656,-2337.590820313,-13.659557343,0
4.658,-2328.855712891,-3.829938173,0
4.660,-2317.944335938,5.507669926,0
4.662,-2318.281982422,4.021028519,0
4.664,-2319.495605469,2.183515549,0
4.666,-2326.617187500,-3.840640068,0
4.668,-2341.121826172,-14.268459320,0
4.670,-2345.208251953,-14.275812149,0
4.672,-2339.491455078,-6.656820774,0
4.674,-2339.148437500,-4.910749912,0
4.676,-2347.406982422,-10.242604256,0
4.678,-2356.498046875,-15.037046432,0
4.680,-2355.151855469,-10.648311615,0
4.682,-2375.306152344,-23.957269669,0
4.684,-2409.184814453,-44.982997894,0
4.686,-2441.498535156,-60.118877411,0
4.688,-2480.731933594,-77.273002625,0
4.690,-2507.828857422,-81.175628662,0
4.692,-2520.097900391,-72.678115845,0
4.694,-2530.146484375,-64.342178345,0
4.696,-2538.443115234,-56.496162415,0
4.698,-2546.731933594,-50.387733459,0
4.700,-2547.782226563,-40.006683350,0
4.702,-2565.521728516,-44.913127899,0
4.704,-2600.933837891,-62.474468231,0
4.706,-2575.380126953,-28.715785980,0
4.708,-2473.037109375,57.264884949,0
4.710,-2334.105468750,152.595336914,0
4.712,-2114.235595703,289.691314697,0
4.714,-1837.128540039,440.837493896,0
4.716,-1567.492919922,552.583129883,0
4.718,-1213.169677734,705.362426758,0
4.720,-854.973815918,827.201293945,0
4.722,-703.691528320,761.032897949,0
4.724,-632.086120605,647.599121094,0
4.726,-539.200500488,575.925109863,0
4.728,-627.994445801,378.874877930,0
4.730,-852.516296387,120.050781250,0
4.732,-1021.971435547,-38.425109863,0
4.734,-1156.994018555,-134.901962280,0
4.736,-1252.157592773,-178.937591553,0
4.738,-1348.329223633,-213.971054077,0
4.740,-1486.165527344,-273.624359131,0
4.742,-1613.688110352,-311.999114990,0
4.744,-1732.845703125,-335.339782715,0
4.746,-1838.165771484,-342.731048584,0
4.748,-1942.603515625,-347.793365479,0
4.750,-2050.123779297,-354.128204346,0
4.752,-2130.460937500,-337.913238525,0
4.754,-2206.032714844,-321.595245361,0
4.756,-2285.571777344,-311.989318848,0
4.758,-2327.838134766,-275.528625488,0
4.760,-2349.510253906,-231.153060913,0
4.762,-2381.232177734,-204.455688477,0
4.764,-2405.698974609,-178.048553467,0
4.766,-2410.301757813,-142.060287476,0
4.768,-2413.601074219,-113.056045532,0
4.770,-2422.245117188,-94.654235840,0
4.772,-2420.775390625,-72.476028442,0
4.774,-2412.030029297,-49.567581177,0
4.776,-2424.570068359,-48.305286407,0
4.778,-2438.948242188,-48.753219604,0
4.780,-2442.506103516,-40.685787201,0
4.782,-2440.755371094,-30.282444000,0
4.784,-2441.246826172,-23.934907913,0
4.786,-2447.180419922,-23.230842590,0
4.788,-2455.653808594,-24.658432007,0
4.790,-2470.091552734,-30.407814026,0
4.792,-2478.843994141,-30.457601547,0
4.794,-2483.632812500,-27.413585663,0
4.796,-2479.049804688,-17.756845474,0
4.798,-2471.048095703,-7.587252617,0
4.800,-2477.529785156,-10.942309380,0
4.802,-2481.601074219,-11.677182198,0
4.804,-2482.853271484,-10.055996895,0
4.806,-2486.794921875,-10.886896133,0
4.808,-2487.814697266,-9.260591507,0
4.810,-2487.247802734,-6.761783123,0
4.812,-2485.356201172,-3.787719727,0
4.814,-2486.915527344,-4.158742905,0
4.816,-2497.545410156,-11.502199173,0
4.818,-2500.226074219,-11.030914307,0
4.820,-2502.270751953,-10.169769287,0
4.822,-2508.382080078,-12.662937164,0
4.824,-2504.194580078,-6.591955662,0
4.826,-2506.535644531,-6.947797298,0
4.828,-2511.464843750,-9.237590790,0
4.830,-2512.033447266,-7.626897812,0
4.832,-2515.856689453,-8.905516624,0
4.834,-2518.263671875,-8.798521996,0
4.836,-2516.504638672,-5.475179672,0
4.838,-2514.697753906,-2.852929354,0
4.840,-2520.203125000,-6.500810623,0
4.842,-2521.383544922,-5.974396229,0
4.844,-2515.508056641,-0.076763876,0
4.846,-2514.327392578,0.858490288,0
4.848,-2521.457031250,-4.877449036,0
4.850,-2529.524658203,-10.068385124,0
4.852,-2530.784179688,-8.810441017,0
4.854,-2524.394531250,-1.882668018,0
4.856,-2519.998535156,1.954752922,0
4.858,-2522.024169922,-0.055114765,0
4.860,-2529.000976563,-5.469252110,0
4.862,-2532.355468750,-6.862893581,0
4.864,-2533.132324219,-5.941905975,0
4.866,-2533.124023438,-4.614901543,0
4.868,-2534.837646484,-4.922122478,0
4.870,-2535.429931641,-4.289011478,0
4.872,-2530.995361328,0.113252215,0
4.874,-2528.756591797,1.829309940,0
4.876,-2531.647949219,-0.826018691,0
4.878,-2537.717285156,-5.363072395,0
4.880,-2542.096679688,-7.577301979,0
4.882,-2542.163085938,-5.944963932,0
4.884,-2545.981689453,-7.593815327,0
4.886,-2547.729980469,-7.266089439,0
4.888,-2545.687255859,-4.062581062,0
4.890,-2546.319091797,-3.650997400,0
4.892,-2552.973876953,-8.015655518,0
4.894,-2556.623779297,-9.072957039,0
4.896,-2556.098144531,-6.647830486,0
4.898,-2557.370605469,-6.160260677,0
4.900,-2560.821533203,-7.475170135,0
4.902,-2563.682617188,-8.039205551,0
4.904,-2567.969726563,-9.587106705,0
4.906,-2569.310058594,-8.499042511,0
4.908,-2572.425537109,-9.033311844,0
4.910,-2583.658203125,-15.762283325,0
4.912,-2586.667968750,-14.600330353,0
4.914,-2583.200683594,-8.658885002,0
4.916,-2585.467773438,-8.497792244,0
4.918,-2581.168701172,-3.265628338,0
4.920,-2578.528320313,-0.486389130,0
4.922,-2590.372558594,-9.590359688,0
4.924,-2597.989746094,-13.383485794,0
4.926,-2598.922607422,-11.134761810,0
4.928,-2605.022216797,-13.404224396,0
4.930,-2603.960449219,-9.599556923,0
4.932,-2601.969726563,-5.917891502,0
4.934,-2605.947021484,-7.696166515,0
4.936,-2614.988281250,-13.017943382,0
4.938,-2633.788085938,-24.746864319,0
4.940,-2642.466552734,-25.997034073,0
4.942,-2627.992187500,-8.962061882,0
4.944,-2610.579589844,6.572670460,0
4.946,-2608.217773438,6.948984623,0
4.948,-2611.674804688,2.715881824,0
4.950,-2620.813720703,-4.995736122,0
4.952,-2627.302490234,-8.932134628,0
4.954,-2625.380371094,-5.452317715,0
4.956,-2626.930175781,-5.445876598,0
4.958,-2614.338623047,5.557705879,0
4.960,-2593.979736328,20.156919479,0
4.962,-2601.834228516,9.568528175,0
4.964,-2613.897705078,-1.940486550,0
4.966,-2614.664550781,-2.105676651,0
4.968,-2626.786132813,-11.065580368,0
4.970,-2639.033203125,-18.131708145,0
4.972,-2626.408203125,-4.283060551,0
4.974,-2619.282958984,2.210702419,0
4.976,-2635.912597656,-11.214700699,0
4.978,-2660.052734375,-27.497833252,0
4.980,-2665.910400391,-25.942756653,0
4.982,-2667.141601563,-21.135107040,0
4.984,-2678.978759766,-25.644823074,0
4.986,-2692.863525391,-30.744817734,0
4.988,-2698.825927734,-28.549604416,0
4.990,-2711.852783203,-32.336921692,0
4.992,-2720.998046875,-32.263328552,0
4.994,-2731.306152344,-33.110847473,0
4.996,-2746.865478516,-37.853984833,0
4.998,-2754.635986328,-35.485309601,0
5.000,-2757.342041016,-29.704030991,0
5.002,-2762.355712891,-27.002311707,0
5.004,-2762.480712891,-21.098756790,0
5.006,-2764.891357422,-18.284721375,0
5.008,-2767.530029297,-16.273672104,0
5.010,-2776.912109375,-19.954250336,0
5.012,-2784.125488281,-21.129917145,0
5.014,-2784.779052734,-16.942564011,0
5.016,-2792.810546875,-19.423946381,0
5.018,-2796.013916016,-17.598829269,0
5.020,-2795.112060547,-12.986346245,0
5.022,-2804.006347656,-17.018081665,0
5.024,-2809.755126953,-17.707391739,0
5.026,-2810.008544922,-13.969398499,0
5.028,-2809.622314453,-10.564397812,0
5.030,-2809.743164063,-8.310739517,0
5.032,-2813.983154297,-9.761486053,0
5.034,-2817.551513672,-10.367477417,0
5.036,-2814.968505859,-6.054627419,0
5.038,-2813.878417969,-3.861309290,0
5.040,-2810.062255859,-0.035095409,0
5.042,-2814.194335938,-3.241101027,0
5.044,-2826.321533203,-11.952955246,0
5.046,-2833.220703125,-14.662589073,0
5.048,-2831.139648438,-9.785451889,0
5.050,-2827.720214844,-4.951267242,0
5.052,-2845.658203125,-17.802503586,0
5.054,-2855.285644531,-21.334138870,0
5.056,-2843.756591797,-7.626035690,0
5.058,-2849.269287109,-10.218894958,0
5.060,-2860.552001953,-16.723281860,0
5.062,-2853.330566406,-7.390186310,0
5.064,-2848.372314453,-1.891526222,0
5.066,-2848.040039063,-1.212692022,0
5.068,-2852.222167969,-4.195960045,0
5.070,-2861.142333984,-10.201282501,0
5.072,-2863.750000000,-9.962376595,0
5.074,-2861.181396484,-5.750587940,0
5.076,-2868.224121094,-9.950219154,0
5.078,-2877.495361328,-14.949940681,0
5.080,-2867.269775391,-3.674365520,0
5.082,-2861.005371094,2.014426708,0
5.084,-2871.495361328,-6.592092514,0
5.086,-2873.252441406,-6.493734837,0
5.088,-2875.688964844,-6.945559025,0
5.090,-2886.691650391,-13.959667206,0
5.092,-2877.040283203,-3.350846291,0
5.094,-2861.223632813,9.695491791,0
5.096,-2863.254150391,5.961598396,0
5.098,-2870.250732422,-0.804923296,0
5.100,-2880.549560547,-8.636178970,0
5.102,-2891.995361328,-15.619105339,0
5.104,-2898.222900391,-16.991582870,0
5.106,-2906.198730469,-19.418815613,0
5.108,-2902.945800781,-12.573428154,0
5.110,-2898.333007813,-6.191437721,0
5.112,-2900.115478516,-6.201903820,0
5.114,-2892.691162109,0.950832605,0
5.116,-2895.845703125,-1.713939309,0
5.118,-2910.929443359,-13.064863205,0
5.120,-2917.329101563,-15.138700485,0
5.122,-2921.028564453,-14.651884079,0
5.124,-2919.443603516,-10.162961960,0
5.126,-2917.782958984,-6.612829208,0
5.128,-2914.883300781,-2.888026476,0
5.130,-2914.039062500,-1.589497566,0
5.132,-2922.424072266,-7.757957935,0
5.134,-2924.848388672,-7.919341564,0
5.136,-2922.070068359,-3.998469591,0
5.138,-2925.005859375,-5.393340111,0
5.140,-2927.215576172,-5.913481236,0
5.142,-2933.326904297,-9.352501869,0
5.144,-2942.094970703,-14.093532562,0
5.146,-2944.674316406,-12.967526436,0
5.148,-2945.193115234,-10.489367485,0
5.150,-2945.908203125,-8.714347839,0
5.152,-2937.373779297,-0.140047073,0
5.154,-2947.204589844,-7.755008698,0
5.156,-2964.997314453,-19.870151520,0
5.158,-2968.031494141,-17.814186096,0
5.160,-2972.981201172,-17.705173492,0
5.162,-2967.276855469,-9.333697319,0
5.164,-2964.194091797,-4.861932278,0
5.166,-2981.076660156,-16.912158966,0
5.168,-2981.348144531,-13.364871979,0
5.170,-2971.478759766,-2.718572140,0
5.172,-2960.125488281,6.715720177,0
5.174,-2959.862792969,5.427624702,0
5.176,-2970.350830078,-3.935892105,0
5.178,-2977.270751953,-8.443295479,0
5.180,-2968.989990234,-0.126410142,0
5.182,-2964.767822266,3.185530901,0
5.184,-2978.841308594,-8.468310356,0
5.186,-2990.729248047,-15.832287788,0
5.188,-2991.986816406,-13.292001724,0
5.190,-2990.575439453,-9.240275383,0
5.192,-2987.596923828,-4.870192528,0
5.194,-2989.803222656,-5.503881454,0
5.196,-2999.597900391,-11.898834229,0
5.198,-3003.494873047,-12.285372734,0
5.200,-3007.820068359,-12.919305801,0
5.202,-3018.154785156,-18.086154938,0
5.204,-3027.306396484,-21.184684753,0
5.206,-3028.354492188,-17.291851044,0
5.208,-3022.660156250,-9.020294189,0
5.210,-3023.593505859,-7.741631508,0
5.212,-3019.129394531,-2.549116373,0
5.214,-3015.857910156,0.561811328,0
5.216,-3030.860595703,-11.231512070,0
5.218,-3044.506347656,-19.348726273,0
5.220,-3048.739501953,-18.341337204,0
5.222,-3057.690917969,-21.227397919,0
5.224,-3060.576660156,-18.754428864,0
5.226,-3065.315917969,-18.272686005,0
5.228,-3071.625000000,-19.118873596,0
5.230,-3068.030761719,-12.074491501,0
5.232,-3062.718994141,-5.259843349,0
5.234,-3063.118164063,-4.401422501,0
5.236,-3061.934326172,-2.502490520,0
5.238,-3071.437988281,-9.338003159,0
5.240,-3081.482421875,-15.074982643,0
5.242,-3077.089111328,-8.307877541,0
5.244,-3089.470458984,-16.091505051,0
5.246,-3095.480224609,-17.189605713,0
5.248,-3083.864746094,-4.335361481,0
5.250,-3072.074462891,5.798188210,0
5.252,-3055.335693359,17.528438568,0
5.254,-3039.505371094,25.945404053,0
5.256,-3030.928710938,26.850204468,0
5.258,-3027.541015625,23.517995834,0
5.260,-3026.068603516,19.436792374,0
5.262,-3032.611572266,10.028453827,0
5.264,-3045.741943359,-2.412723541,0
5.266,-3053.797607422,-8.141912460,0
5.268,-3058.980224609,-10.363437653,0
5.270,-3049.257324219,-0.498113900,0
5.272,-3044.929687500,2.978550196,0
5.274,-3043.468261719,3.453120470,0
5.276,-3034.983154297,9.285313606,0
5.278,-3043.374023438,0.695605040,0
5.280,-3055.535400391,-8.917786598,0
5.282,-3056.973388672,-8.054400444,0
5.284,-3055.611816406,-5.205351353,0
5.286,-3055.552001953,-4.002036095,0
5.288,-3067.943603516,-12.750497818,0
5.290,-3083.955566406,-22.370557785,0
5.292,-3096.166748047,-26.896545410,0
5.294,-3102.773681641,-26.057905197,0
5.296,-3098.320800781,-16.803592682,0
5.298,-3106.024169922,-19.060863495,0
5.300,-3105.910644531,-14.736468315,0
5.302,-3098.701904297,-5.854798317,0
5.304,-3108.466552734,-12.148358345,0
5.306,-3114.245117188,-13.943000793,0
5.308,-3104.342285156,-3.142246723,0
5.310,-3105.760253906,-3.546865463,0
5.312,-3108.232666016,-4.681652546,0
5.314,-3104.476318359,-0.719591320,0
5.316,-3105.197509766,-1.120645761,0
5.318,-3108.401611328,-3.363587141,0
5.320,-3117.199707031,-9.458953857,0
5.322,-3122.244873047,-11.280840874,0
5.324,-3112.653076172,-1.313722014,0
5.326,-3108.325195313,2.344381809,0
5.328,-3114.949951172,-3.329149246,0
5.330,-3118.262939453,-5.166155815,0
5.332,-3120.665039063,-5.886219025,0
5.334,-3123.704345703,-6.942150593,0
5.336,-3125.082031250,-6.470872879,0
5.338,-3124.793945313,-4.808743477,0
5.340,-3126.368896484,-4.964918613,0
5.342,-3136.543945313,-11.775387764,0
5.344,-3143.186767578,-14.325063705,0
5.346,-3131.384521484,-1.962166548,0
5.348,-3127.058593750,1.838449717,0
5.350,-3134.639892578,-4.466762066,0
5.352,-3143.416748047,-10.300433159,0
5.354,-3145.811279297,-9.873633385,0
5.356,-3136.959472656,-0.794720888,0
5.358,-3131.229980469,3.838039160,0
5.360,-3137.142578125,-1.613507867,0
5.362,-3155.220947266,-15.315739632,0
5.364,-3180.711669922,-31.737873077,0
5.366,-3208.017089844,-45.921977997,0
5.368,-3237.533447266,-58.673488617,0
5.370,-3256.785888672,-60.608287811,0
5.372,-3266.333740234,-54.565212250,0
5.374,-3276.195556641,-50.109249115,0
5.376,-3285.665283203,-46.338588715,0
5.378,-3304.269775391,-50.510566711,0
5.380,-3310.353271484,-44.017181396,0
5.382,-3309.393554688,-33.488739014,0
5.384,-3330.471923828,-42.440479279,0
5.386,-3330.852294922,-33.304649353,0
5.388,-3241.293457031,43.752616882,0
5.390,-3085.648193359,155.085235596,0
5.392,-2889.270996094,273.356231689,0
5.394,-2620.478759766,421.665496826,0
5.396,-2336.251220703,549.020874023,0
5.398,-2013.818603516,677.788269043,0
5.400,-1605.876220703,844.446228027,0
5.402,-1307.359619141,888.959594727,0
5.404,-1217.037353516,761.653686523,0
5.406,-1146.386230469,647.339843750,0
5.408,-1125.953613281,519.371765137,0
5.410,-1329.769287109,245.429397583,0
5.412,-1590.900024414,-12.212028503,0
5.414,-1778.278198242,-155.234832764,0
5.416,-1922.833129883,-233.166717529,0
5.418,-2011.180419922,-250.063247681,0
5.420,-2111.005859375,-272.132049561,0
5.422,-2253.527099609,-322.504058838,0
5.424,-2393.510498047,-359.707733154,0
5.426,-2514.155517578,-373.602874756,0
5.428,-2632.593505859,-382.693359375,0
5.430,-2742.208007813,-382.901214600,0
5.432,-2813.584960938,-353.322814941,0
5.434,-2870.717285156,-319.238830566,0
5.436,-2926.740966797,-291.867034912,0
5.438,-2974.354003906,-264.036529541,0
5.440,-3014.475097656,-236.564086914,0
5.442,-3042.278320313,-205.616256714,0
5.444,-3061.559326172,-174.917846680,0
5.446,-3071.451904297,-143.739669800,0
5.448,-3071.245849609,-111.635742188,0
5.450,-3075.205322266,-89.906311035,0
5.452,-3088.680664063,-80.406814575,0
5.454,-3106.053955078,-76.050140381,0
5.456,-3115.281005859,-66.325820923,0
5.458,-3123.195312500,-57.741619110,0
5.460,-3130.776611328,-50.806133270,0
5.462,-3131.821533203,-40.327980042,0
5.464,-3133.348388672,-32.553409576,0
5.466,-3142.304687500,-32.284870148,0
5.468,-3146.123779297,-28.080442429,0
5.470,-3150.432373047,-25.191249847,0
5.472,-3149.032470703,-18.504093170,0
5.474,-3142.064208984,-8.972237587,0
5.476,-3144.394775391,-8.790972710,0
5.478,-3153.869140625,-14.206196785,0
5.480,-3156.262451172,-12.910474777,0
5.482,-3156.383544922,-10.135638237,0
5.484,-3155.605712891,-7.278202057,0
5.486,-3152.215087891,-3.023482561,0
5.488,-3143.476318359,4.445102215,0
5.490,-3136.014404297,9.260818481,0
5.492,-3138.326416016,5.404702187,0
5.494,-3136.550292969,5.584908485,0
5.496,-3144.354248047,-1.725852728,0
5.498,-3149.242431641,-5.144163132,0
5.500,-3141.879150391,1.725991368,0
5.502,-3141.239746094,1.839636445,0
5.504,-3141.851318359,0.955180585,0
5.506,-3138.157958984,3.615471601,0
5.508,-3131.093994141,8.306076050,0
5.510,-3129.167236328,7.958848953,0
5.512,-3125.207275391,9.270051956,0
5.514,-3129.036376953,4.231699467,0
5.516,-3137.534912109,-3.318506718,0
5.518,-3138.757324219,-3.531810760,0
5.520,-3144.006591797,-6.829731464,0
5.522,-3139.322265625,-1.668493509,0
5.524,-3130.436279297,5.613567829,0
5.526,-3128.981445313,5.497478485,0
5.528,-3133.373046875,0.860178769,0
5.530,-3134.627197266,-0.306492478,0
5.532,-3126.765869141,5.875859261,0
5.534,-3122.184814453,8.133029938,0
5.536,-3120.325927734,7.771424770,0
5.538,-3113.936035156,11.014238358,0
5.540,-3115.562011719,7.301879883,0
5.542,-3128.715820313,-4.551311493,0
5.544,-3131.466308594,-5.679287434,0
5.546,-3120.838867188,3.848671675,0
5.548,-3113.411132813,8.770297050,0
5.550,-3118.203369141,3.093987465,0
5.552,-3119.158691406,1.663394213,0
5.554,-3119.192871094,1.267223120,0
5.556,-3125.600585938,-3.998150826,0
5.558,-3124.382080078,-2.161871672,0
5.560,-3120.830322266,1.081086516,0
5.562,-3123.114746094,-0.936064482,0
5.564,-3121.231689453,0.736631393,0
5.566,-3124.732910156,-2.150243521,0
5.568,-3125.940185547,-2.611313820,0
5.570,-3120.363769531,2.306106567,0
5.572,-3121.531005859,0.885812521,0
5.574,-3116.501953125,4.600294113,0
5.576,-3109.923339844,8.694729805,0
5.578,-3108.858154297,7.590937138,0
5.580,-3105.642333984,8.405083656,0
5.582,-3100.255371094,10.727072716,0
5.584,-3100.660888672,8.027666092,0
5.586,-3096.315429688,9.623463631,0
5.588,-3095.511230469,8.110326767,0
5.590,-3098.878173828,3.689133406,0
5.592,-3098.200683594,3.396355391,0
5.594,-3101.152587891,0.345583677,0
5.596,-3101.296142578,0.157189757,0
5.598,-3097.979248047,2.701963186,0
5.600,-3094.597412109,4.731796265,0
5.602,-3087.237548828,9.404479027,0
5.604,-3083.367675781,10.324359894,0
5.606,-3087.993652344,4.432142258,0
5.608,-3087.801269531,3.596748590,0
5.610,-3085.496093750,4.590256691,0
5.612,-3082.590576172,5.830022335,0
5.614,-3077.827148438,8.239217758,0
5.616,-3072.640136719,10.442502975,0
5.618,-3067.369628906,12.221070290,0
5.620,-3066.465576172,10.208336830,0
5.622,-3069.100097656,5.890648842,0
5.624,-3070.418212891,3.556459665,0
5.626,-3068.373535156,4.356345654,0
5.628,-3063.820800781,6.929240227,0
5.630,-3058.364013672,9.633393288,0
5.632,-3054.536865234,10.469057083,0
5.634,-3055.907226563,7.076845169,0
5.636,-3058.725830078,3.311760902,0
5.638,-3049.366455078,9.855252266,0
5.640,-3043.796875000,11.996922493,0
5.642,-3043.784667969,9.340387344,0
5.644,-3034.013427734,14.864393234,0
5.646,-3030.272460938,14.470537186,0
5.648,-3037.990722656,5.251837254,0
5.650,-3045.326660156,-1.621016502,0
5.652,-3050.611816406,-5.371471405,0
5.654,-3055.151611328,-7.708551407,0
5.656,-3068.093261719,-16.061100006,0
5.658,-3072.829101563,-16.175123215,0
5.660,-3079.408447266,-17.697774887,0
5.662,-3096.656738281,-27.179960251,0
5.664,-3109.495117188,-31.124895096,0
5.666,-3120.071533203,-32.434001923,0
5.668,-3120.690185547,-25.707246780,0
5.670,-3122.666748047,-21.531494141,0
5.672,-3130.132324219,-22.553112030,0
5.674,-3131.684570313,-18.748254776,0
5.676,-3140.502929688,-21.440395355,0
5.678,-3155.517822266,-28.353885651,0
5.680,-3162.717041016,-27.651969910,0
5.682,-3170.706054688,-27.720396042,0
5.684,-3177.582031250,-26.907888412,0
5.686,-3184.250488281,-26.114660263,0
5.688,-3195.576660156,-29.120237350,0
5.690,-3200.235107422,-26.271993637,0
5.692,-3199.397949219,-19.782361984,0
5.694,-3196.922851563,-13.460999489,0
5.696,-3184.465576172,-0.780700505,0
5.698,-3189.027099609,-4.154962063,0
5.700,-3201.462646484,-12.903627396,0
5.702,-3201.604980469,-10.146769524,0
5.704,-3193.188964844,-1.346141934,0
5.706,-3188.750732422,2.404994249,0
5.708,-3199.527587891,-6.511356354,0
5.710,-3207.177001953,-11.013760567,0
5.712,-3205.065673828,-6.924132824,0
5.714,-3206.412109375,-6.432618618,0
5.716,-3208.537841797,-6.656301022,0
5.718,-3217.493408203,-12.142432213,0
5.720,-3221.937988281,-12.900756836,0
5.722,-3217.868896484,-6.868975639,0
5.724,-3209.485595703,1.177762151,0
5.726,-3200.351074219,8.020522118,0
5.728,-3211.217773438,-2.213762045,0
5.730,-3209.239013672,-0.182654753,0
5.732,-3198.954589844,7.856726170,0
5.734,-3204.468017578,1.822611928,0
5.736,-3217.550781250,-8.757848740,0
5.738,-3219.035156250,-7.966084003,0
5.740,-3203.532226563,5.861960411,0
5.742,-3204.736816406,3.622435093,0
5.744,-3224.797851563,-12.785415649,0
5.746,-3236.129150391,-18.757318497,0
5.748,-3226.919433594,-7.425736427,0
5.750,-3209.890380859,7.469089508,0
5.752,-3197.719238281,15.275492668,0
5.754,-3193.768310547,14.953749657,0
5.756,-3205.569335938,2.452102900,0
5.758,-3211.936767578,-3.045129299,0
5.760,-3211.653076172,-2.147854567,0
5.762,-3210.304687500,-0.621700168,0
5.764,-3207.967773438,1.334041715,0
5.766,-3212.676757813,-2.624916792,0
5.768,-3213.407958984,-2.610391617,0
5.770,-3210.447021484,0.272695512,0
5.772,-3211.476562500,-0.588676393,0
5.774,-3214.365478516,-2.704820156,0
5.776,-3211.283447266,0.293535948,0
5.778,-3211.542724609,0.026588552,0
5.780,-3216.171386719,-3.579372168,0
5.782,-3216.830810547,-3.296785116,0
5.784,-3208.219970703,4.133148193,0
5.786,-3210.424072266,1.500191808,0
5.788,-3220.954833984,-7.023516655,0
5.790,-3213.154785156,0.603826880,0
5.792,-3209.615234375,3.222684383,0
5.794,-3216.028076172,-2.481182814,0
5.796,-3213.358886719,0.146085620,0
5.798,-3213.434570313,0.054932538,0
5.800,-3216.342041016,-2.218651533,0
5.802,-3211.117187500,2.338128328,0
5.804,-3212.003662109,1.129087448,0
5.806,-3217.630126953,-3.497995853,0
5.808,-3213.769531250,0.281921566,0
5.810,-3219.660888672,-4.362727165,0
5.812,-3230.647460938,-11.938235283,0
5.814,-3228.118896484,-7.318548203,0
5.816,-3222.890136719,-1.625298500,0
5.818,-3228.314941406,-5.483398438,0
5.820,-3240.409912109,-13.671932220,0
5.822,-3244.124267578,-13.522485733,0
5.824,-3235.004638672,-3.424385548,0
5.826,-3234.540527344,-2.302314758,0
5.828,-3239.000488281,-5.259531498,0
5.830,-3242.312011719,-6.666336536,0
5.832,-3243.102294922,-5.799435616,0
5.834,-3237.018798828,0.220987469,0
5.836,-3232.090332031,4.004968643,0
5.838,-3226.679687500,7.323141575,0
5.840,-3234.769775391,-0.596398532,0
5.842,-3246.095703125,-9.272924423,0
5.844,-3246.950927734,-7.877357006,0
5.846,-3246.793212891,-6.003948212,0
5.848,-3243.271972656,-1.931032896,0
5.850,-3230.150634766,8.703363419,0
5.852,-3221.338623047,13.623042107,0
5.854,-3237.231689453,-1.765684962,0
5.856,-3236.322753906,-0.666281521,0
5.858,-3233.007080078,2.060689211,0
5.860,-3248.845214844,-10.715647697,0
5.862,-3253.854248047,-12.230268478,0
5.864,-3256.451416016,-11.532318115,0
5.866,-3261.334228516,-12.767063141,0
5.868,-3256.251464844,-5.976719379,0
5.870,-3246.650390625,2.818918467,0
5.872,-3245.836425781,2.825640202,0
5.874,-3245.687744141,2.313222885,0
5.876,-3247.467041016,0.415374786,0
5.878,-3245.360107422,1.961711645,0
5.880,-3236.607910156,8.333052635,0
5.882,-3250.565185547,-4.374341965,0
5.884,-3268.774658203,-17.565011978,0
5.886,-3276.837158203,-19.932304382,0
5.888,-3281.873535156,-19.419864655,0
5.890,-3278.363769531,-12.374251366,0
5.892,-3273.027587891,-5.474070072,0
5.894,-3273.151855469,-4.354266644,0
5.896,-3267.493652344,1.014333248,0
5.898,-3259.904052734,6.691684246,0
5.900,-3260.940917969,4.398302555,0
5.902,-3271.347167969,-4.672939777,0
5.904,-3284.093750000,-13.548213005,0
5.906,-3286.967773438,-12.772651672,0
5.908,-3293.770996094,-15.225562096,0
5.910,-3297.081542969,-14.416792870,0
5.912,-3291.821044922,-7.121422291,0
5.914,-3284.807861328,-0.084254906,0
5.916,-3272.636718750,9.400871277,0
5.918,-3257.155029297,19.352727890,0
5.920,-3241.998291016,26.840473175,0
5.922,-3228.224365234,31.588434219,0
5.924,-3217.042236328,33.265621185,0
5.926,-3214.202148438,28.081953049,0
5.928,-3230.342041016,9.288047791,0
5.930,-3236.906982422,2.118020296,0
5.932,-3232.365966797,5.179123878,0
5.934,-3238.457031250,-0.709298193,0
5.936,-3242.228759766,-3.485148907,0
5.938,-3233.637939453,3.970981598,0
5.940,-3226.566650391,8.588364601,0
5.942,-3228.453613281,5.212004662,0
5.944,-3224.722900391,6.955466747,0
5.946,-3226.984863281,3.650482893,0
5.948,-3238.335693359,-5.989031792,0
5.950,-3244.222900391,-9.237049103,0
5.952,-3251.917968750,-13.169245720,0
5.954,-3261.410156250,-17.625415802,0
5.956,-3259.397949219,-12.143461227,0
5.958,-3257.397460938,-7.888756275,0
5.960,-3266.636962891,-13.321807861,0
5.962,-3273.126953125,-15.409060478,0
5.964,-3272.478271484,-11.480176926,0
5.966,-3276.934082031,-12.394433022,0
5.968,-3282.780761719,-14.187304497,0
5.970,-3267.431152344,0.903898060,0
5.972,-3265.693603516,2.054435015,0
5.974,-3275.163574219,-5.767569542,0
5.976,-3276.362060547,-5.417822361,0
5.978,-3276.918945313,-4.646949291,0
5.980,-3270.156250000,1.645512223,0
5.982,-3275.453125000,-2.839884996,0
5.984,-3291.578369141,-14.750555038,0
5.986,-3291.572021484,-11.467441559,0
5.988,-3288.069091797,-6.194524288,0
5.990,-3286.423828125,-3.538422585,0
5.992,-3286.294189453,-2.651157141,0
5.994,-3284.769775391,-0.876329720,0
5.996,-3280.721923828,2.466776133,0
5.998,-3289.272216797,-4.731742382,0
6.000,-3284.011718750,0.411245018,0
6.002,-3275.329101563,7.072966576,0
6.004,-3289.506103516,-5.525182247,0
6.006,-3292.758300781,-6.826882839,0
6.008,-3296.115234375,-7.920497417,0
6.010,-3303.760009766,-12.106332779,0
6.012,-3299.839599609,-6.366753578,0
6.014,-3285.861328125,5.920104980,0
6.016,-3290.315917969,1.139743567,0
6.018,-3309.417480469,-13.970042229,0
6.020,-3308.664550781,-10.279801369,0
6.022,-3295.244140625,2.442615271,0
6.024,-3294.538818359,2.448406219,0
6.026,-3295.419189453,1.219592214,0
6.028,-3303.145996094,-5.061119556,0
6.030,-3316.868408203,-14.609284401,0
6.032,-3343.577636719,-32.136135101,0
6.034,-3394.571533203,-64.655914307,0
6.036,-3431.386962891,-78.921203613,0
6.038,-3447.190185547,-73.673446655,0
6.040,-3454.730712891,-63.165626526,0
6.042,-3449.785156250,-45.281730652,0
6.044,-3441.374511719,-28.677070618,0
6.046,-3454.195800781,-32.276168823,0
6.048,-3479.227783203,-44.572391510,0
6.050,-3488.255859375,-41.688777924,0
6.052,-3488.731201172,-32.793861389,0
6.054,-3482.521240234,-20.676042557,0
6.056,-3404.396484375,44.681674957,0
6.058,-3229.138916016,171.061599731,0
6.060,-3033.616699219,285.117156982,0
6.062,-2797.974609375,405.029602051,0
6.064,-2499.983886719,546.786621094,0
6.066,-2187.367187500,668.415954590,0
6.068,-1826.739990234,800.356567383,0
6.070,-1542.220458984,843.781616211,0
6.072,-1455.240600586,723.916137695,0
6.074,-1372.698974609,627.236816406,0
6.076,-1309.831787109,536.740539551,0
6.078,-1492.090454102,275.704589844,0
6.080,-1779.200927734,-8.871144295,0
6.082,-2004.774780273,-182.343688965,0
6.084,-2178.000732422,-276.550689697,0
6.086,-2271.369384766,-287.711242676,0
6.088,-2347.251708984,-282.791381836,0
6.090,-2460.545898438,-308.062469482,0
6.092,-2589.225097656,-339.683502197,0
6.094,-2700.884033203,-351.039642334,0
6.096,-2794.887451172,-346.140075684,0
6.098,-2907.393798828,-356.720336914,0
6.100,-2988.710937500,-340.691467285,0
6.102,-3033.268798828,-299.634399414,0
6.104,-3077.697265625,-267.601043701,0
6.106,-3116.569580078,-238.365036011,0
6.108,-3152.319580078,-213.197921753,0
6.110,-3195.276611328,-199.228866577,0
6.112,-3218.229736328,-172.806121826,0
6.114,-3222.968994141,-138.088989258,0
6.116,-3236.095214844,-117.610282898,0
6.118,-3242.029296875,-96.088745117,0
6.120,-3242.379638672,-75.007225037,0
6.122,-3252.771240234,-66.420478821,0
6.124,-3255.562255859,-53.830459595,0
6.126,-3255.909179688,-42.137432098,0
6.128,-3263.718261719,-38.846786499,0
6.130,-3270.812011719,-35.731105804,0
6.132,-3282.912597656,-37.201927185,0
6.134,-3295.810058594,-38.965686798,0
6.136,-3283.684814453,-20.875614166,0
6.138,-3279.981933594,-13.356372833,0
6.140,-3287.114746094,-15.935852051,0
6.142,-3278.757080078,-5.894039154,0
6.144,-3280.218261719,-5.720760345,0
6.146,-3281.381103516,-5.353756428,0
6.148,-3278.952636719,-2.275310040,0
6.150,-3285.611328125,-6.948575974,0
6.152,-3285.297363281,-5.160068035,0
6.154,-3288.813476563,-6.748120785,0
6.156,-3284.147705078,-1.619584799,0
6.158,-3272.029785156,8.165261269,0
6.160,-3267.470214844,9.897044182,0
6.162,-3267.674072266,7.538958073,0
6.164,-3274.540527344,0.523182154,0
6.166,-3274.529296875,0.415611863,0
6.168,-3270.180175781,3.705899000,0
6.170,-3280.662353516,-5.270409584,0
6.172,-3276.596923828,-0.937297702,0
6.174,-3253.276611328,17.408857346,0
6.176,-3252.758544922,13.942924500,0
6.178,-3273.024414063,-4.917806625,0
6.180,-3273.391845703,-4.110607147,0
6.182,-3258.805419922,8.147813797,0
6.184,-3260.270507813,5.197497368,0
6.186,-3268.924560547,-2.688297510,0
6.188,-3253.288085938,10.070687294,0
6.190,-3248.644287109,11.444371223,0
6.192,-3251.741699219,6.492038250,0
6.194,-3248.842529297,7.304156780,0
6.196,-3253.510253906,2.050603628,0
6.198,-3256.412109375,-0.662153780,0
6.200,-3250.855224609,3.806906223,0
6.202,-3247.668212891,5.439724922,0
6.204,-3254.503906250,-1.085829139,0
6.206,-3247.716064453,4.434881687,0
6.208,-3237.991699219,11.012529373,0
6.210,-3241.947753906,5.488368034,0
6.212,-3226.429443359,16.338310242,0
6.214,-3220.116943359,17.617124557,0
6.216,-3225.236328125,9.720278740,0
6.218,-3218.876708984,12.506393433,0
6.220,-3231.566162109,-0.142366484,0
6.222,-3248.376708984,-13.185338974,0
6.224,-3246.230468750,-8.585947037,0
6.226,-3228.446289063,7.154205322,0
6.228,-3203.575439453,24.907968521,0
6.230,-3198.342773438,23.442426682,0
6.232,-3202.246826172,15.196351051,0
6.234,-3206.384765625,8.600928307,0
6.236,-3216.309814453,-1.029863596,0
6.238,-3223.564697266,-6.443643093,0
6.240,-3224.920166016,-6.066001892,0
6.242,-3222.328857422,-2.702434301,0
6.244,-3226.746582031,-5.537885189,0
6.246,-3238.867187500,-13.734189987,0
6.248,-3242.959716797,-13.865053177,0
6.250,-3210.601318359,14.383644104,0
6.252,-3185.633056641,30.606491089,0
6.254,-3199.931396484,12.684085846,0
6.256,-3208.177978516,3.451334953,0
6.258,-3205.947998047,4.418783188,0
6.260,-3202.223388672,6.333553314,0
6.262,-3202.447509766,4.751797676,0
6.264,-3202.874755859,3.363492727,0
6.266,-3196.714599609,7.407158852,0
6.268,-3199.861083984,3.313726664,0
6.270,-3202.289550781,0.688523114,0
6.272,-3199.485351563,2.716689348,0
6.274,-3196.246826172,4.631588936,0
6.276,-3200.088134766,0.614664257,0
6.278,-3197.802978516,2.255429029,0
6.280,-3191.268798828,6.836320877,0
6.282,-3191.700683594,4.981111050,0
6.284,-3189.943115234,5.241150379,0
6.286,-3185.161621094,7.795327187,0
6.288,-3182.779052734,7.916111469,0
6.290,-3184.486328125,4.829010487,0
6.292,-3182.854736328,5.024717808,0
6.294,-3183.790283203,3.180506945,0
6.296,-3185.430175781,1.198135138,0
6.298,-3173.348144531,10.328971863,0
6.300,-3154.709716797,22.529968262,0
6.302,-3147.025634766,23.499359131,0
6.304,-3143.298828125,21.175642014,0
6.306,-3144.031738281,15.899710655,0
6.308,-3144.070556641,12.336188316,0
6.310,-3151.232910156,4.024071693,0
6.312,-3155.506835938,-0.194418967,0
6.314,-3152.956054688,1.832786560,0
6.316,-3156.687500000,-1.476739287,0
6.318,-3157.051025391,-1.431259513,0
6.320,-3159.410644531,-2.948485136,0
6.322,-3160.358398438,-3.030467033,0
6.324,-3165.634033203,-6.460077763,0
6.326,-3180.174560547,-16.333599091,0
6.328,-3192.974365234,-22.659036636,0
6.330,-3205.424804688,-27.307022095,0
6.332,-3208.225097656,-23.416456223,0
6.334,-3227.785644531,-33.426189423,0
6.336,-3256.421630859,-48.270015717,0
6.338,-3259.796386719,-40.167549133,0
6.340,-3262.856933594,-33.621395111,0
6.342,-3278.878662109,-38.610862732,0
6.344,-3285.457031250,-35.146797180,0
6.346,-3288.762451172,-29.906776428,0
6.348,-3292.817626953,-26.414581299,0
6.350,-3297.135742188,-23.902786255,0
6.352,-3298.731445313,-19.831928253,0
6.354,-3295.610107422,-12.997048378,0
6.356,-3292.702148438,-7.846907616,0
6.358,-3296.989746094,-9.437854767,0
6.360,-3315.477783203,-21.719785690,0
6.362,-3318.460693359,-19.212949753,0
6.364,-3303.209716797,-3.081564665,0
6.366,-3296.472656250,2.843033791,0
6.368,-3292.133544922,5.586086750,0
6.370,-3291.641113281,4.727764606,0
6.372,-3302.420166016,-4.706519604,0
6.374,-3300.930664063,-2.502151489,0
6.376,-3299.851318359,-1.106540322,0
6.378,-3304.340332031,-4.352066040,0
6.380,-3297.446533203,1.976915479,0
6.382,-3292.908447266,5.067086220,0
6.384,-3302.224609375,-3.304836035,0
6.386,-3311.176513672,-9.532743454,0
6.388,-3308.328613281,-5.199249268,0
6.390,-3304.536132813,-1.094260454,0
6.392,-3303.636718750,-0.151591197,0
6.394,-3305.017089844,-1.191497207,0
6.396,-3300.938720703,2.245385408,0
6.398,-3299.619628906,2.772326469,0
6.400,-3305.797851563,-2.649045467,0
6.402,-3297.135009766,4.677473068,0
6.404,-3292.921630859,6.914922714,0
6.406,-3300.311035156,-0.368935168,0
6.408,-3302.077636719,-1.661041021,0
6.410,-3306.299560547,-4.575578213,0
6.412,-3305.610595703,-3.022811174,0
6.414,-3299.706054688,2.241150618,0
6.416,-3299.188964844,2.145354271,0
6.418,-3298.720214844,2.033246040,0
6.420,-3292.982910156,6.043638706,0
6.422,-3294.661865234,3.394635439,0
6.424,-3301.739257813,-2.864199638,0
6.426,-3295.258300781,2.812823296,0
6.428,-3288.387695313,7.531456470,0
6.430,-3292.097900391,2.972209930,0
6.432,-3290.404785156,3.628454685,0
6.434,-3289.468261719,3.550504446,0
6.436,-3288.546142578,3.478623390,0
6.438,-3292.163330078,-0.107783578,0
6.440,-3299.648925781,-5.905858994,0
6.442,-3290.940917969,2.179509401,0
6.444,-3284.078125000,7.032806873,0
6.446,-3296.119140625,-3.895249128,0
6.448,-3292.802246094,-0.449878275,0
6.450,-3278.748291016,10.580806732,0
6.452,-3277.751708984,9.004448891,0
6.454,-3280.874511719,4.574661732,0
6.456,-3283.416992188,1.580476761,0
6.458,-3286.484130859,-1.156116724,0
6.460,-3290.214355469,-3.800462723,0
6.462,-3294.464599609,-6.261631012,0
