Time,Vin,RawSignal,Event
Verified data,Verified data,For Reference Only,For Reference Only
0.002,463.931213379,360.830718994,0
0.004,-2655.924072266,-2145.880126953,0
0.006,9252.778320313,7593.208007813,0
0.008,-21125.476562500,-17721.474609375,0
0.010,35932.386718750,30594.572265625,0
0.012,-40425.890625000,-35593.531250000,0
0.014,16616.685546875,16682.375000000,0
0.016,-13751.881835938,-10644.677734375,0
0.018,-1844.933105469,981.753112793,0
0.020,-4968.757812500,-1666.033935547,0
0.022,-4501.404296875,-932.295043945,0
0.024,-4488.593750000,-715.145385742,0
0.026,-4485.116210938,-553.512268066,0
0.028,-4487.844726563,-432.625885010,0
0.030,-4492.174804688,-339.850433350,0
0.032,-4495.759277344,-267.112335205,0
0.034,-4493.508789063,-206.001037598,0
0.036,-4491.160156250,-158.394165039,0
0.038,-4491.587402344,-123.526084900,0
0.040,-4483.272949219,-89.607902527,0
0.042,-4476.884277344,-64.725257874,0
0.044,-4483.827148438,-55.741226196,0
0.046,-4482.947753906,-42.669692993,0
0.048,-4475.236816406,-27.189836502,0
0.050,-4482.111328125,-26.494388580,0
0.052,-4486.615234375,-24.109155655,0
0.054,-4491.542480469,-22.583713531,0
0.056,-4493.173828125,-18.833593369,0
0.058,-4482.514648438,-6.357755661,0
0.060,-4483.891113281,-6.015644073,0
0.062,-4482.594238281,-3.670222044,0
0.064,-4481.323242188,-1.865955472,0
0.066,-4483.962890625,-3.504129410,0
0.068,-4480.171386719,0.223522082,0
0.070,-4474.966796875,4.221554756,0
0.072,-4467.948730469,8.741901398,0
0.074,-4467.440917969,7.194161892,0
0.076,-4464.971679688,7.515748978,0
0.078,-4455.680175781,13.072192192,0
0.080,-4462.170898438,5.118873596,0
0.082,-4466.243164063,0.814193726,0
0.084,-4458.101074219,6.965698242,0
0.086,-4464.979003906,0.068347454,0
0.088,-4475.622558594,-8.224838257,0
0.090,-4479.871093750,-9.701555252,0
0.092,-4479.030761719,-6.891953468,0
0.094,-4473.449218750,-1.019176602,0
0.096,-4471.514648438,0.711928725,0
0.098,-4480.848144531,-6.705641270,0
0.100,-4469.723632813,3.436779261,0
0.102,-4446.981933594,20.361022949,0
0.104,-4453.096191406,11.080668449,0
0.106,-4470.007324219,-4.534741402,0
0.108,-4473.578125000,-6.304178238,0
0.110,-4462.136718750,3.995572805,0
0.112,-4457.480468750,6.728817463,0
0.114,-4464.877929688,-0.520051599,0
0.116,-4460.081542969,3.326238155,0
0.118,-4458.605957031,3.734690905,0
0.120,-4457.518554688,3.750224590,0
0.122,-4444.483886719,13.054809570,0
0.124,-4441.873046875,12.184244156,0
0.126,-4441.378417969,9.861379623,0
0.128,-4440.346191406,8.472590446,0
0.130,-4443.085937500,4.458994389,0
0.132,-4441.879394531,4.406432152,0
0.134,-4438.196777344,6.291390419,0
0.136,-4436.794433594,5.983826637,0
0.138,-4432.026855469,8.362174988,0
0.140,-4429.633789063,8.364900589,0
0.142,-4429.528808594,6.587767124,0
0.144,-4432.552246094,2.771944046,0
0.146,-4427.540039063,6.054293156,0
0.148,-4422.626953125,8.530379295,0
0.150,-4423.418945313,6.018564224,0
0.152,-4416.119628906,10.358159065,0
0.154,-4407.739257813,14.574136734,0
0.156,-4405.290039063,13.240212440,0
0.158,-4408.246582031,7.998503208,0
0.160,-4404.371093750,9.235012054,0
0.162,-4407.022460938,5.120562553,0
0.164,-4407.842773438,3.344527721,0
0.166,-4391.029296875,15.678355217,0
0.168,-4382.414062500,18.894842148,0
0.170,-4376.543457031,19.261743546,0
0.172,-4362.478027344,25.920686722,0
0.174,-4356.869628906,24.522483826,0
0.176,-4352.540039063,22.439985275,0
0.178,-4347.616699219,21.282463074,0
0.180,-4353.347656250,12.095424652,0
0.182,-4361.068359375,3.402361631,0
0.184,-4385.713867188,-16.522006989,0
0.186,-4402.667480469,-26.036392212,0
0.188,-4392.205566406,-12.113421440,0
0.190,-4390.667968750,-8.225278854,0
0.192,-4410.898437500,-22.131881714,0
0.194,-4425.607421875,-28.653739929,0
0.196,-4429.895996094,-25.621473312,0
0.198,-4427.553222656,-18.105461121,0
0.200,-4434.556640625,-19.528980255,0
0.202,-4445.021972656,-23.328327179,0
0.204,-4456.525390625,-27.091115952,0
0.206,-4470.189453125,-31.698156357,0
0.208,-4475.839355469,-29.047916412,0
0.210,-4483.008789063,-28.168691635,0
0.212,-4482.432617188,-21.460756302,0
0.214,-4482.215820313,-16.522953033,0
0.216,-4499.909179688,-26.612043381,0
0.218,-4510.453125000,-28.898815155,0
0.220,-4511.558593750,-23.336322784,0
0.222,-4522.551269531,-26.700010300,0
0.224,-4529.983398438,-26.546815872,0
0.226,-4519.449218750,-12.454122543,0
0.228,-4518.912597656,-9.269354820,0
0.230,-4518.161132813,-6.624708176,0
0.232,-4512.907714844,-1.066593170,0
0.234,-4518.163085938,-4.916906834,0
0.236,-4517.121582031,-3.014155865,0
0.238,-4514.929687500,-0.639552116,0
0.240,-4516.541503906,-1.751049995,0
0.242,-4516.150390625,-1.057921052,0
0.244,-4519.635742188,-3.533506393,0
0.246,-4519.052246094,-2.294398546,0
0.248,-4521.477050781,-3.670592785,0
0.250,-4518.716796875,-0.707919836,0
0.252,-4513.629394531,3.406079531,0
0.254,-4524.309570313,-5.657326698,0
0.256,-4518.497070313,0.120751239,0
0.258,-4509.443847656,7.135192871,0
0.260,-4517.401855469,-0.640094995,0
0.262,-4519.030273438,-1.764185786,0
0.264,-4513.637207031,2.822330475,0
0.266,-4511.239257813,4.060012341,0
0.268,-4508.153320313,5.558114052,0
0.270,-4512.470214844,0.965123832,0
0.272,-4518.872558594,-4.228837967,0
0.274,-4510.793945313,2.994400740,0
0.276,-4508.231445313,4.321784019,0
0.278,-4511.254882813,1.009765267,0
0.280,-4505.582031250,5.197534561,0
0.282,-4506.593261719,3.256005764,0
0.284,-4512.948730469,-2.410478830,0
0.286,-4510.355957031,0.141678169,0
0.288,-4514.875000000,-3.404719114,0
0.290,-4519.338867188,-6.119678020,0
0.292,-4519.082031250,-4.560003281,0
0.294,-4522.848632813,-6.476352692,0
0.296,-4520.805175781,-3.447717667,0
0.298,-4519.081542969,-1.340892911,0
0.300,-4516.676269531,0.827837467,0
0.302,-4507.323242188,7.918433189,0
0.304,-4499.552246094,12.202595711,0
0.306,-4497.035644531,11.448288918,0
0.308,-4500.873535156,5.918924809,0
0.310,-4507.833984375,-0.810004652,0
0.312,-4515.028808594,-6.225744724,0
0.314,-4513.531250000,-3.677397966,0
0.316,-4508.659667969,0.928524077,0
0.318,-4501.656250000,6.169466496,0
0.320,-4499.450683594,6.513682365,0
0.322,-4501.822753906,3.221328735,0
0.324,-4501.820312500,2.507219315,0
0.326,-4501.022460938,2.570606232,0
0.328,-4507.130859375,-2.751691341,0
0.330,-4505.099609375,-0.560335577,0
0.332,-4503.090332031,1.127214193,0
0.334,-4505.141601563,-0.719003856,0
0.336,-4499.334960938,3.957052708,0
0.338,-4506.791992188,-2.721934795,0
0.340,-4515.092285156,-8.573011398,0
0.342,-4507.220703125,-0.545280337,0
0.344,-4509.475585938,-2.177828550,0
0.346,-4511.416992188,-3.203974247,0
0.348,-4503.355468750,3.778052330,0
0.350,-4500.667968750,5.028662682,0
0.352,-4495.823730469,7.678711891,0
0.354,-4497.702148438,4.511598587,0
0.356,-4498.452148438,2.925513506,0
0.358,-4485.983398438,11.972967148,0
0.360,-4485.584472656,9.622571945,0
0.362,-4488.501464844,5.215455532,0
0.364,-4491.749511719,1.530225635,0
0.366,-4506.129882813,-9.994661331,0
0.368,-4516.677734375,-15.977215767,0
0.370,-4521.884277344,-16.475845337,0
0.372,-4515.325683594,-7.713523865,0
0.374,-4511.657226563,-3.146148682,0
0.376,-4506.903320313,1.250674009,0
0.378,-4496.609863281,8.978670120,0
0.380,-4494.826171875,8.370676994,0
0.382,-4489.745117188,10.462295532,0
0.384,-4490.104492188,7.857547283,0
0.386,-4496.594238281,1.063898087,0
0.388,-4503.332031250,-4.413041115,0
0.390,-4503.072265625,-3.230283737,0
0.392,-4498.765625000,0.837082863,0
0.394,-4500.450195313,-0.659176409,0
0.396,-4503.388183594,-2.797691107,0
0.398,-4502.271972656,-1.307548046,0
0.400,-4500.012695313,0.739859164,0
0.402,-4505.650390625,-3.809195280,0
0.404,-4508.696289063,-5.331822395,0
0.406,-4505.318359375,-1.519659758,0
0.408,-4504.969726563,-0.910585403,0
0.410,-4499.368652344,3.647985458,0
0.412,-4491.804199219,8.720894814,0
0.414,-4506.426757813,-4.590173244,0
0.416,-4509.444824219,-5.917451859,0
0.418,-4500.378906250,2.448590279,0
0.420,-4505.663085938,-2.205435276,0
0.422,-4498.347167969,3.974813700,0
0.424,-4495.491210938,5.312933922,0
0.426,-4504.452636719,-2.837757587,0
0.428,-4497.514648438,3.188971996,0
0.430,-4494.093750000,5.140868664,0
0.432,-4500.328125000,-0.850391984,0
0.434,-4505.621582031,-4.778503418,0
0.436,-4512.920410156,-9.393424034,0
0.438,-4517.854492188,-11.143463135,0
0.440,-4509.514160156,-2.179972172,0
0.442,-4508.400390625,-0.829277456,0
0.444,-4511.381835938,-2.964093208,0
0.446,-4502.690429688,4.454595566,0
0.448,-4504.572753906,2.000730991,0
0.450,-4514.837890625,-6.427762032,0
0.452,-4512.739746094,-3.367417574,0
0.454,-4509.654296875,-0.219452485,0
0.456,-4514.602050781,-4.018816471,0
0.458,-4517.376464844,-5.283544540,0
0.460,-4509.473632813,2.037227631,0
0.462,-4508.602050781,2.262354374,0
0.464,-4511.494628906,-0.490109563,0
0.466,-4518.230468750,-5.620078564,0
0.468,-4524.941406250,-9.590675354,0
0.470,-4524.890136719,-7.419741631,0
0.472,-4535.112792969,-13.721494675,0
0.474,-4536.801757813,-11.985749245,0
0.476,-4528.372558594,-2.766401768,0
0.478,-4523.740234375,1.451563716,0
0.480,-4515.560058594,7.490978718,0
0.482,-4514.856445313,6.373533249,0
0.484,-4529.363769531,-6.326094627,0
0.486,-4541.866699219,-14.644719124,0
0.488,-4541.557617188,-11.149769783,0
0.490,-4546.583496094,-12.580990791,0
0.492,-4538.912109375,-3.818391323,0
0.494,-4517.925292969,13.353130341,0
0.496,-4505.020996094,20.422264099,0
0.498,-4490.655273438,27.056682587,0
0.500,-4472.854980469,34.888427734,0
0.502,-4465.005371094,33.240276337,0
0.504,-4472.245117188,20.222505569,0
0.506,-4482.734863281,7.569627762,0
0.508,-4488.715332031,1.235975266,0
0.510,-4502.142578125,-9.481759071,0
0.512,-4500.392578125,-6.013648510,0
0.514,-4487.692382813,5.200771332,0
0.516,-4484.337890625,6.653914452,0
0.518,-4478.064453125,10.054568291,0
0.520,-4468.854003906,14.983658791,0
0.522,-4468.329589844,12.061696053,0
0.524,-4472.153808594,6.406711102,0
0.526,-4474.962402344,2.798511028,0
0.528,-4476.132812500,1.266261339,0
0.530,-4477.239257813,0.124217592,0
0.532,-4472.649902344,3.666244984,0
0.534,-4470.061523438,4.864623070,0
0.536,-4492.046875000,-13.316020966,0
0.538,-4509.017578125,-23.556167603,0
0.540,-4508.884277344,-18.217279434,0
0.542,-4517.359375000,-20.760526657,0
0.544,-4522.437011719,-20.096193314,0
0.546,-4519.740722656,-13.533044815,0
0.548,-4511.210937500,-3.891234398,0
0.550,-4503.380371094,3.063568115,0
0.552,-4509.996093750,-2.762506485,0
0.554,-4511.500488281,-3.318682909,0
0.556,-4502.671386719,4.285660267,0
0.558,-4501.814453125,4.000015736,0
0.560,-4507.023925781,-0.940783679,0
0.562,-4506.420410156,-0.262223005,0
0.564,-4499.909667969,4.859893799,0
0.566,-4509.174804688,-3.426490068,0
0.568,-4523.764160156,-14.012143135,0
0.570,-4518.379882813,-6.710263729,0
0.572,-4517.257812500,-4.346589565,0
0.574,-4522.458496094,-7.425542831,0
0.576,-4518.817382813,-2.943339348,0
0.578,-4506.418945313,7.353752136,0
0.580,-4506.082519531,5.981225967,0
0.582,-4510.439941406,1.263031721,0
0.584,-4505.292480469,4.985748768,0
0.586,-4515.114746094,-3.761336327,0
0.588,-4530.720214844,-15.063229561,0
0.590,-4526.070800781,-8.099370956,0
0.592,-4515.930175781,1.587453485,0
0.594,-4513.182617188,3.371728897,0
0.596,-4510.986816406,4.330429554,0
0.598,-4509.413574219,4.591614723,0
0.600,-4511.906738281,1.631985068,0
0.602,-4511.073242188,1.917548060,0
0.604,-4503.255859375,7.571740150,0
0.606,-4513.090820313,-1.760252833,0
0.608,-4535.776855469,-19.013486862,0
0.610,-4554.334472656,-29.221601486,0
0.612,-4586.753417969,-47.942253113,0
0.614,-4617.001953125,-60.814029694,0
0.616,-4642.414062500,-67.064231873,0
0.618,-4658.447753906,-64.630737305,0
0.620,-4657.122070313,-49.236690521,0
0.622,-4653.413085938,-35.410057068,0
0.624,-4660.968750000,-33.417041779,0
0.626,-4674.940917969,-36.857864380,0
0.628,-4677.546386719,-30.693313599,0
0.630,-4685.024902344,-29.689058304,0
0.632,-4696.826171875,-32.269466400,0
0.634,-4647.162109375,13.528643608,0
0.636,-4506.375976563,120.021087646,0
0.638,-4311.576660156,244.857345581,0
0.640,-4051.760009766,392.518920898,0
0.642,-3764.832763672,528.451293945,0
0.644,-3457.349365234,650.163085938,0
0.646,-3077.260742188,801.296447754,0
0.648,-2776.833740234,856.884826660,0
0.650,-2667.505859375,751.489135742,0
0.652,-2581.708740234,651.214050293,0
0.654,-2533.749023438,543.794860840,0
0.656,-2696.700927734,296.207336426,0
0.658,-2944.395019531,37.731906891,0
0.660,-3136.936279297,-120.405570984,0
0.662,-3276.086669922,-201.874252319,0
0.664,-3370.955810547,-230.797424316,0
0.666,-3504.024414063,-283.003265381,0
0.668,-3672.534179688,-351.172241211,0
0.670,-3806.825195313,-377.577606201,0
0.672,-3917.552246094,-379.787658691,0
0.674,-4030.973876953,-383.602294922,0
0.676,-4129.055664063,-374.638061523,0
0.678,-4202.560058594,-348.551025391,0
0.680,-4265.286132813,-319.878051758,0
0.682,-4314.077148438,-286.738647461,0
0.684,-4350.898925781,-251.655075073,0
0.686,-4388.213378906,-224.751174927,0
0.688,-4414.729980469,-195.427688599,0
0.690,-4424.570312500,-159.651107788,0
0.692,-4428.988281250,-127.607460022,0
0.694,-4433.636718750,-102.864440918,0
0.696,-4446.236328125,-89.804237366,0
0.698,-4451.497558594,-73.938636780,0
0.700,-4458.849121094,-63.224853516,0
0.702,-4480.067871094,-65.677734375,0
0.704,-4495.939941406,-63.426582336,0
0.706,-4497.557617188,-50.589611053,0
0.708,-4493.090820313,-35.872673035,0
0.710,-4497.260742188,-31.143980026,0
0.712,-4506.213867188,-31.186056137,0
0.714,-4512.625976563,-29.242479324,0
0.716,-4515.078125000,-24.651088715,0
0.718,-4504.283691406,-10.777517319,0
0.720,-4493.751953125,-0.191100419,0
0.722,-4492.006347656,1.209160805,0
0.724,-4501.032226563,-6.079629421,0
0.726,-4501.520996094,-5.108664513,0
0.728,-4507.612304688,-8.710861206,0
0.730,-4508.752441406,-7.662033558,0
0.732,-4503.980468750,-2.247876167,0
0.734,-4508.766601563,-5.470788956,0
0.736,-4503.705566406,-0.318716198,0
0.738,-4494.411132813,6.981286049,0
0.740,-4491.189941406,7.935163498,0
0.742,-4492.665039063,5.024165630,0
0.744,-4491.194335938,5.051747322,0
0.746,-4495.074218750,0.911513150,0
0.748,-4499.236816406,-2.528914213,0
0.750,-4497.796875000,-0.846982479,0
0.752,-4501.451660156,-3.501178265,0
0.754,-4492.219726563,4.457117081,0
0.756,-4485.434082031,8.744247437,0
0.758,-4490.443847656,2.904550552,0
0.760,-4488.621093750,3.677047253,0
0.762,-4481.988281250,8.018628120,0
0.764,-4479.809570313,7.930903435,0
0.766,-4482.102050781,4.385455132,0
0.768,-4482.411621094,3.170090914,0
0.770,-4488.607910156,-2.353756666,0
0.772,-4490.125976563,-3.011363983,0
0.774,-4486.994628906,0.093545981,0
0.776,-4485.127929688,1.524341941,0
0.778,-4483.549316406,2.413424015,0
0.780,-4482.168945313,2.950965405,0
0.782,-4475.188476563,7.724051952,0
0.784,-4472.671875000,7.965081692,0
0.786,-4480.491699219,0.112803042,0
0.788,-4479.720703125,0.687368989,0
0.790,-4468.704589844,9.102836609,0
0.792,-4466.515136719,8.782614708,0
0.794,-4469.894531250,4.202629566,0
0.796,-4467.430664063,5.184889793,0
0.798,-4463.065917969,7.427469730,0
0.800,-4459.455078125,8.585268974,0
0.802,-4450.494140625,13.646604538,0
0.804,-4451.852539063,9.557361603,0
0.806,-4459.725585938,1.310164571,0
0.808,-4469.014160156,-6.205502987,0
0.810,-4466.804687500,-3.107719421,0
0.812,-4460.726074219,2.310325623,0
0.814,-4462.455078125,0.452274233,0
0.816,-4460.988769531,1.492387295,0
0.818,-4459.450683594,2.357032061,0
0.820,-4460.201171875,1.249299288,0
0.822,-4462.318359375,-0.675119340,0
0.824,-4466.025878906,-3.408533573,0
0.826,-4464.847656250,-1.734835148,0
0.828,-4460.237792969,2.236322880,0
0.830,-4459.106933594,2.618872881,0
0.832,-4457.724121094,3.112192392,0
0.834,-4457.498046875,2.596562624,0
0.836,-4449.303710938,8.392659187,0
0.838,-4444.245605469,10.461694717,0
0.840,-4438.149902344,12.877984047,0
0.842,-4437.261230469,10.707064629,0
0.844,-4447.295410156,0.523357093,0
0.846,-4449.189941406,-1.066347718,0
0.848,-4440.895507813,5.621731281,0
0.850,-4440.189453125,4.921682358,0
0.852,-4442.240722656,2.232409000,0
0.854,-4435.086425781,7.300483704,0
0.856,-4431.447753906,8.508182526,0
0.858,-4431.015136719,6.953953266,0
0.860,-4424.891601563,10.171067238,0
0.862,-4427.855468750,5.605549335,0
0.864,-4427.187011719,4.879946709,0
0.866,-4429.402343750,2.072485447,0
0.868,-4427.949218750,2.741997719,0
0.870,-4416.836425781,10.775764465,0
0.872,-4410.925292969,12.978631020,0
0.874,-4409.624023438,11.106351852,0
0.876,-4408.597656250,9.436545372,0
0.878,-4404.441894531,10.571473122,0
0.880,-4404.972167969,7.809981823,0
0.882,-4398.945312500,10.761576653,0
0.884,-4392.137207031,13.665212631,0
0.886,-4389.459472656,12.711023331,0
0.888,-4385.810058594,12.724810600,0
0.890,-4376.773437500,16.925073624,0
0.892,-4366.204101563,21.384500504,0
0.894,-4355.459472656,24.988679886,0
0.896,-4345.884277344,26.882673264,0
0.898,-4346.926269531,20.098394394,0
0.900,-4351.185546875,12.319151878,0
0.902,-4353.728515625,7.603423595,0
0.904,-4349.434082031,9.253887177,0
0.906,-4353.675781250,3.898274899,0
0.908,-4366.937011719,-7.282424450,0
0.910,-4376.336914063,-12.974860191,0
0.912,-4382.831542969,-15.142572403,0
0.914,-4396.271484375,-22.230518341,0
0.916,-4400.166015625,-20.319339752,0
0.918,-4401.017578125,-16.466009140,0
0.920,-4411.123046875,-20.666465759,0
0.922,-4422.906738281,-25.238689423,0
0.924,-4427.538574219,-23.232242584,0
0.926,-4437.179199219,-25.567584991,0
0.928,-4443.648925781,-24.917711258,0
0.930,-4447.950683594,-22.725736618,0
0.932,-4457.025878906,-24.733758926,0
0.934,-4457.974121094,-19.974735260,0
0.936,-4452.558105469,-11.323226929,0
0.938,-4458.974121094,-13.796888351,0
0.940,-4471.686523438,-20.618085861,0
0.942,-4482.360351563,-24.338018417,0
0.944,-4487.992675781,-23.309894562,0
0.946,-4486.820800781,-17.218235016,0
0.948,-4485.207519531,-12.136935234,0
0.950,-4478.844726563,-4.491165161,0
0.952,-4473.963378906,0.303662688,0
0.954,-4480.117675781,-4.550725937,0
0.956,-4479.722656250,-3.231866360,0
0.958,-4477.224609375,-0.570827127,0
0.960,-4492.525390625,-12.344614029,0
0.962,-4495.222167969,-11.698623657,0
0.964,-4486.342285156,-2.192434788,0
0.966,-4484.388183594,-0.185309991,0
0.968,-4486.951171875,-2.137385607,0
0.970,-4486.250488281,-1.117318988,0
0.972,-4483.344726563,1.390904784,0
0.974,-4481.590820313,2.446038723,0
0.976,-4480.764648438,2.544913769,0
0.978,-4474.035156250,7.213427544,0
0.980,-4478.641601563,2.027438164,0
0.982,-4482.880859375,-1.720086694,0
0.984,-4474.989257813,4.799882889,0
0.986,-4478.262695313,1.187325835,0
0.988,-4476.906250000,1.978421330,0
0.990,-4478.564453125,0.249135658,0
0.992,-4481.569824219,-2.144037008,0
0.994,-4476.664062500,2.148277998,0
0.996,-4474.846191406,3.084660769,0
0.998,-4474.088378906,2.988604069,0
1.000,-4474.248046875,2.200220823,0
1.002,-4475.187988281,0.979939878,0
1.004,-4478.975097656,-2.182992697,0
1.006,-4478.373046875,-1.229871631,0
1.008,-4474.813964844,1.811771512,0
1.010,-4473.219238281,2.649579287,0
1.012,-4471.779785156,3.179998875,0
1.014,-4470.101562500,3.778534889,0
1.016,-4476.627441406,-2.136492014,0
1.018,-4478.428710938,-3.062640429,0
1.020,-4478.678710938,-2.576705933,0
1.022,-4478.491699219,-1.858567953,0
1.024,-4462.317382813,11.134464264,0
1.026,-4462.391601563,8.602087975,0
1.028,-4469.893554688,0.855697215,0
1.030,-4468.885253906,1.449674010,0
1.032,-4476.033203125,-4.431818485,0
1.034,-4477.452636719,-4.551051140,0
1.036,-4472.405273438,0.386080533,0
1.038,-4469.837402344,2.297548771,0
1.040,-4458.701660156,10.448185921,0
1.042,-4453.192382813,12.411071777,0
1.044,-4458.301757813,5.679040432,0
1.046,-4469.115722656,-3.993920565,0
1.048,-4474.605957031,-7.376530647,0
1.050,-4475.986328125,-6.810853004,0
1.052,-4485.395507813,-12.615244865,0
1.054,-4479.885253906,-5.525867462,0
1.056,-4471.386718750,2.311868668,0
1.058,-4481.310058594,-5.919808388,0
1.060,-4468.856445313,5.081799507,0
1.062,-4460.783203125,10.231277466,0
1.064,-4470.529785156,0.376937211,0
1.066,-4473.570312500,-2.071382523,0
1.068,-4470.166015625,1.036459208,0
1.070,-4469.204101563,1.554504156,0
1.072,-4466.855957031,3.035396814,0
1.074,-4467.215332031,2.081133842,0
1.076,-4470.391113281,-0.851242423,0
1.078,-4474.659179688,-3.981595278,0
1.080,-4478.077636719,-5.755782127,0
1.082,-4483.147460938,-8.419760704,0
1.084,-4485.037109375,-8.018266678,0
1.086,-4483.620117188,-5.134280682,0
1.088,-4481.563964844,-2.394187212,0
1.090,-4482.103027344,-2.281219721,0
1.092,-4481.237792969,-1.101171136,0
1.094,-4475.440917969,3.652014732,0
1.096,-4472.449218750,5.167240143,0
1.098,-4477.659179688,-0.033132650,0
1.100,-4482.123046875,-3.497832775,0
1.102,-4481.240234375,-2.033748150,0
1.104,-4478.135253906,0.833349407,0
1.106,-4469.544433594,7.329478264,0
1.108,-4460.783203125,12.515103340,0
1.110,-4460.902343750,9.640930176,0
1.112,-4468.790527344,1.363314152,0
1.114,-4485.124511719,-11.643458366,0
1.116,-4487.520507813,-10.919504166,0
1.118,-4484.376953125,-6.047971725,0
1.120,-4492.395019531,-10.940224648,0
1.122,-4486.649902344,-4.040431976,0
1.124,-4476.772949219,4.539566040,0
1.126,-4474.943359375,4.953398228,0
1.128,-4473.784179688,4.754301071,0
1.130,-4486.914062500,-6.514341354,0
1.132,-4490.910156250,-8.174440384,0
1.134,-4486.083984375,-2.604485750,0
1.136,-4483.798339844,-0.247988135,0
1.138,-4487.364746094,-2.966668606,0
1.140,-4487.739257813,-2.598669529,0
1.142,-4486.934082031,-1.394670486,0
1.144,-4488.759277344,-2.504529715,0
1.146,-4488.226562500,-1.533677697,0
1.148,-4489.327636719,-2.049060822,0
1.150,-4494.191406250,-5.376451492,0
1.152,-4489.480957031,-0.518057704,0
1.154,-4489.091308594,-0.099809833,0
1.156,-4492.330566406,-2.597249031,0
1.158,-4493.148925781,-2.656491280,0
1.160,-4491.096191406,-0.469698548,0
1.162,-4496.483886719,-4.555689335,0
1.164,-4507.253906250,-11.919794083,0
1.166,-4505.300292969,-7.751170635,0
1.168,-4501.228027344,-2.861294985,0
1.170,-4504.716796875,-4.938819885,0
1.172,-4504.344726563,-3.551977873,0
1.174,-4492.983398438,6.073961258,0
1.176,-4485.211425781,10.768850327,0
1.178,-4485.794433594,7.922036171,0
1.180,-4487.190429688,5.076005936,0
1.182,-4496.535644531,-3.320565462,0
1.184,-4506.489257813,-10.324174881,0
1.186,-4517.645507813,-16.707000732,0
1.188,-4518.442382813,-13.613861084,0
1.190,-4497.559082031,5.654023647,0
1.192,-4474.759765625,22.130052567,0
1.194,-4461.683105469,27.382457733,0
1.196,-4452.967285156,28.076265335,0
1.198,-4447.958496094,25.732400894,0
1.200,-4442.251953125,24.452415466,0
1.202,-4436.468261719,23.516550064,0
1.204,-4432.015625000,21.753339767,0
1.206,-4432.894042969,16.235944748,0
1.208,-4438.858886719,7.988725185,0
1.210,-4449.616699219,-2.153757811,0
1.212,-4445.957031250,1.170952439,0
1.214,-4437.615234375,7.398952961,0
1.216,-4434.498535156,8.178530693,0
1.218,-4430.746093750,9.279522896,0
1.220,-4433.844238281,4.807850838,0
1.222,-4436.083007813,1.998209119,0
1.224,-4431.146484375,5.393417835,0
1.226,-4437.873535156,-1.037064791,0
1.228,-4445.771484375,-6.949620724,0
1.230,-4452.290527344,-10.475293159,0
1.232,-4472.597656250,-23.941608429,0
1.234,-4486.107421875,-29.128376007,0
1.236,-4480.129882813,-18.006048203,0
1.238,-4473.445312500,-8.805547714,0
1.240,-4474.472656250,-7.647464275,0
1.242,-4473.868652344,-5.478273392,0
1.244,-4474.969726563,-5.117102623,0
1.246,-4472.298339844,-1.902448654,0
1.248,-4476.335937500,-4.619805813,0
1.250,-4477.435058594,-4.448089600,0
1.252,-4470.380371094,2.027352333,0
1.254,-4475.378417969,-2.310482979,0
1.256,-4478.310546875,-4.077680111,0
1.258,-4474.268066406,-0.027128145,0
1.260,-4473.646972656,0.461819917,0
1.262,-4460.657226563,10.462045670,0
1.264,-4448.485351563,17.603973389,0
1.266,-4454.219726563,9.231923103,0
1.268,-4464.131347656,-0.528812587,0
1.270,-4473.806152344,-7.936039925,0
1.272,-4487.657714844,-16.945528030,0
1.274,-4490.686523438,-15.535555840,0
1.276,-4480.667968750,-4.290819645,0
1.278,-4475.830078125,0.425437003,0
1.280,-4473.756347656,1.943690658,0
1.282,-4471.531250000,3.242548943,0
1.284,-4468.016601563,5.255527973,0
1.286,-4473.891113281,-0.481625319,0
1.288,-4486.060546875,-9.839344025,0
1.290,-4485.925781250,-7.547892570,0
1.292,-4473.593261719,3.721067429,0
1.294,-4469.711914063,5.913160324,0
1.296,-4477.285156250,-1.291352630,0
1.298,-4474.759765625,0.959842980,0
1.300,-4468.272460938,5.792345524,0
1.302,-4470.754394531,2.574459791,0
1.304,-4478.254394531,-3.830644369,0
1.306,-4486.339843750,-9.267953873,0
1.308,-4505.529785156,-22.133716583,0
1.310,-4546.094726563,-48.765190125,0
1.312,-4588.354492188,-70.796104431,0
1.314,-4609.205078125,-71.280036926,0
1.316,-4630.936523438,-72.341239929,0
1.318,-4643.922851563,-66.365036011,0
1.320,-4636.650878906,-45.960666656,0
1.322,-4642.752929688,-40.492565155,0
1.324,-4641.763183594,-30.723915100,0
1.326,-4645.963867188,-27.163549423,0
1.328,-4668.695312500,-38.806415558,0
1.330,-4631.796386719,-1.483826637,0
1.332,-4511.281250000,92.578842163,0
1.334,-4339.967773438,205.246856689,0
1.336,-4108.242675781,339.862518311,0
1.338,-3838.043701172,474.486297607,0
1.340,-3545.622314453,596.475891113,0
1.342,-3164.969970703,759.978881836,0
1.344,-2785.326171875,886.361694336,0
1.346,-2597.930664063,835.133666992,0
1.348,-2518.627197266,711.219604492,0
1.350,-2448.038085938,608.065551758,0
1.352,-2537.656982422,403.231048584,0
1.354,-2776.437500000,127.904342651,0
1.356,-2980.427978516,-59.177391052,0
1.358,-3128.280761719,-161.021316528,0
1.360,-3245.811523438,-216.648910522,0
1.362,-3377.021240234,-270.553161621,0
1.364,-3545.910400391,-341.783905029,0
1.366,-3701.957275391,-387.196807861,0
1.368,-3833.799072266,-403.691528320,0
1.370,-3958.311035156,-410.819488525,0
1.372,-4060.756591797,-399.200958252,0
1.374,-4134.686523438,-367.985839844,0
1.376,-4195.265625000,-333.324188232,0
1.378,-4252.789062500,-303.988708496,0
1.380,-4294.848144531,-269.144744873,0
1.382,-4324.198730469,-232.159759521,0
1.384,-4362.073730469,-210.024459839,0
1.386,-4384.451171875,-180.754486084,0
1.388,-4388.146484375,-143.459213257,0
1.390,-4391.116699219,-113.888206482,0
1.392,-4400.463378906,-95.847885132,0
1.394,-4407.900390625,-80.331825256,0
1.396,-4411.126464844,-64.988662720,0
1.398,-4428.574218750,-64.116294861,0
1.400,-4440.897949219,-59.452766418,0
1.402,-4443.500488281,-48.264610291,0
1.404,-4451.154296875,-43.491268158,0
1.406,-4449.087402344,-32.218574524,0
1.408,-4444.810546875,-21.732395172,0
1.410,-4451.907226563,-22.422183990,0
1.412,-4456.354492188,-20.898239136,0
1.414,-4448.396972656,-10.064726830,0
1.416,-4448.708007813,-8.070146561,0
1.418,-4450.737304688,-7.854806423,0
1.420,-4441.375488281,1.171885133,0
1.422,-4436.744628906,4.513453007,0
1.424,-4436.452148438,3.737604856,0
1.426,-4441.121093750,-0.724014580,0
1.428,-4450.594238281,-7.931220531,0
1.430,-4466.605468750,-18.621463776,0
1.432,-4485.089843750,-28.859983444,0
1.434,-4483.889160156,-21.512575150,0
1.436,-4471.360839844,-6.987392902,0
1.438,-4458.132324219,4.854172707,0
1.440,-4450.469726563,9.734944344,0
1.442,-4449.759277344,8.124294281,0
1.444,-4447.822753906,7.824938774,0
1.446,-4446.990234375,6.733246326,0
1.448,-4450.589355469,2.437598705,0
1.450,-4450.517578125,1.951953292,0
1.452,-4445.098632813,5.732571125,0
1.454,-4441.189941406,7.498687744,0
1.456,-4435.679687500,10.117896080,0
1.458,-4432.666992188,10.212615967,0
1.460,-4433.865234375,7.011375427,0
1.462,-4438.193847656,2.086465359,0
1.464,-4451.729003906,-8.904427528,0
1.466,-4456.445312500,-10.593688965,0
1.468,-4449.211425781,-2.613187551,0
1.470,-4442.327636719,3.321409702,0
1.472,-4435.075195313,8.224128723,0
1.474,-4433.280273438,7.792359352,0
1.476,-4438.108398438,2.305649996,0
1.478,-4438.200683594,1.721288323,0
1.480,-4437.351074219,1.999435902,0
1.482,-4447.859863281,-6.618299484,0
1.484,-4442.350585938,-0.862369359,0
1.486,-4429.785644531,9.101766586,0
1.488,-4429.883789063,7.002993584,0
1.490,-4432.700683594,3.255671740,0
1.492,-4431.255371094,3.656189919,0
1.494,-4424.043457031,8.452939987,0
1.496,-4418.236816406,11.090715408,0
1.498,-4415.556640625,10.710474968,0
1.500,-4410.945312500,11.916666985,0
1.502,-4417.013671875,4.548589230,0
1.504,-4424.479003906,-2.268519640,0
1.506,-4427.542968750,-4.147384167,0
1.508,-4440.613281250,-13.391273499,0
1.510,-4443.664550781,-12.788574219,0
1.512,-4432.486328125,-1.252300024,0
1.514,-4429.617187500,1.257406354,0
1.516,-4429.402343750,1.145029902,0
1.518,-4428.370605469,1.693219543,0
1.520,-4430.686035156,-0.484018505,0
1.522,-4422.559082031,5.944298267,0
1.524,-4418.179199219,8.029878616,0
1.526,-4427.926269531,-1.335514665,0
1.528,-4428.634277344,-1.589495778,0
1.530,-4429.097167969,-1.596400619,0
1.532,-4433.956054688,-5.020632267,0
1.534,-4429.412109375,-0.370477945,0
1.536,-4423.346679688,4.429253578,0
1.538,-4421.540527344,4.849593639,0
1.540,-4421.281250000,3.973583937,0
1.542,-4418.263671875,5.437543392,0
1.544,-4417.733398438,4.641342163,0
1.546,-4422.374023438,0.000853975,0
1.548,-4422.164062500,0.163955942,0
1.550,-4418.053222656,3.324825048,0
1.552,-4415.640625000,4.462253571,0
1.554,-4416.881347656,2.505536795,0
1.556,-4417.069335938,1.802639723,0
1.558,-4416.488281250,1.853829145,0
1.560,-4416.188964844,1.674713612,0
1.562,-4407.206054688,8.289023399,0
1.564,-4407.633300781,6.114732742,0
1.566,-4411.829589844,1.492280126,0
1.568,-4406.946289063,4.958480358,0
1.570,-4395.564941406,12.708708763,0
1.572,-4387.179687500,16.406324387,0
1.574,-4389.144531250,11.232126236,0
1.576,-4394.991210938,4.188451290,0
1.578,-4387.686035156,8.939200401,0
1.580,-4382.763671875,10.781053543,0
1.582,-4381.772949219,9.155982971,0
1.584,-4373.574707031,13.497619629,0
1.586,-4363.426757813,18.390739441,0
1.588,-4354.665039063,21.118238449,0
1.590,-4348.294433594,21.379833221,0
1.592,-4342.192871094,21.374252319,0
1.594,-4342.791992188,16.158155441,0
1.596,-4348.784667969,7.906431198,0
1.598,-4353.815917969,2.236211061,0
1.600,-4356.051269531,0.000614752,0
1.602,-4355.166015625,0.689046860,0
1.604,-4355.431640625,0.329391867,0
1.606,-4363.107910156,-5.714169979,0
1.608,-4373.096191406,-12.212803841,0
1.610,-4381.083984375,-15.711447716,0
1.612,-4390.656738281,-19.665168762,0
1.614,-4402.873535156,-24.796991348,0
1.616,-4405.036132813,-20.968238831,0
1.618,-4410.143554688,-20.280948639,0
1.620,-4422.642089844,-25.494638443,0
1.622,-4425.442871094,-22.007337570,0
1.624,-4435.073730469,-24.607017517,0
1.626,-4443.412109375,-25.623825073,0
1.628,-4439.723144531,-17.060510635,0
1.630,-4435.285156250,-9.817108154,0
1.632,-4436.607421875,-8.664051056,0
1.634,-4449.196289063,-16.529609680,0
1.636,-4460.715820313,-21.815948486,0
1.638,-4460.870117188,-17.087680817,0
1.640,-4473.044433594,-22.758878708,0
1.642,-4488.570312500,-29.776655197,0
1.644,-4486.257324219,-21.360450745,0
1.646,-4472.693359375,-6.063740253,0
1.648,-4469.085937500,-1.910603642,0
1.650,-4470.501464844,-2.586853743,0
1.652,-4475.628417969,-5.999553204,0
1.654,-4480.400878906,-8.378347397,0
1.656,-4477.403808594,-4.185097218,0
1.658,-4478.706542969,-4.268267155,0
1.660,-4478.500488281,-3.159418344,0
1.662,-4474.543457031,0.620225370,0
1.664,-4477.392578125,-1.733682275,0
1.666,-4477.571289063,-1.487479806,0
1.668,-4477.409667969,-1.030971169,0
1.670,-4473.296875000,2.396730900,0
1.672,-4473.762207031,1.502376080,0
1.674,-4483.707031250,-6.566158772,0
1.676,-4478.414550781,-0.990677655,0
1.678,-4483.368652344,-4.623604298,0
1.680,-4494.229492188,-12.043391228,0
1.682,-4483.719726563,-1.192700148,0
1.684,-4478.143554688,3.409312487,0
1.686,-4478.028808594,2.740583897,0
1.688,-4480.219238281,0.428043544,0
1.690,-4480.997558594,-0.272430688,0
1.692,-4470.759277344,7.751066685,0
1.694,-4473.239257813,4.099736214,0
1.696,-4478.514160156,-0.914058506,0
1.698,-4480.020019531,-1.881965160,0
1.700,-4489.482910156,-8.823673248,0
1.702,-4490.286621094,-7.487843037,0
1.704,-4484.172851563,-1.068880200,0
1.706,-4487.694824219,-3.570729733,0
1.708,-4485.081542969,-0.744579315,0
1.710,-4482.302734375,1.582122684,0
1.712,-4483.193359375,0.537872970,0
1.714,-4486.683105469,-2.295822382,0
1.716,-4487.570800781,-2.475933313,0
1.718,-4482.591308594,1.946949840,0
1.720,-4485.946777344,-1.095335245,0
1.722,-4483.926269531,0.719533205,0
1.724,-4477.282714844,5.726928711,0
1.726,-4480.458496094,1.984031677,0
1.728,-4489.728515625,-5.666890621,0
1.730,-4498.171386719,-10.973962784,0
1.732,-4503.828613281,-12.935309410,0
1.734,-4499.835937500,-6.955286503,0
1.736,-4498.313476563,-4.225462437,0
1.738,-4499.828125000,-4.464505196,0
1.740,-4492.585449219,2.160881281,0
1.742,-4491.618164063,2.432926416,0
1.744,-4492.759277344,1.004810572,0
1.746,-4499.577148438,-4.521453381,0
1.748,-4503.129882813,-6.279757023,0
1.750,-4497.364746094,-0.400358260,0
1.752,-4496.531738281,0.336672574,0
1.754,-4495.978515625,0.691990018,0
1.756,-4499.665039063,-2.328715324,0
1.758,-4503.875000000,-5.085723877,0
1.760,-4505.524902344,-5.238785744,0
1.762,-4504.754882813,-3.475693464,0
1.764,-4500.357421875,0.716932535,0
1.766,-4496.219238281,3.776355505,0
1.768,-4501.096679688,-0.856691360,0
1.770,-4506.277832031,-4.695755005,0
1.772,-4499.357421875,1.730278015,0
1.774,-4502.460937500,-1.068195581,0
1.776,-4509.808105469,-6.545111179,0
1.778,-4512.233886719,-6.977514744,0
1.780,-4509.287109375,-3.134931803,0
1.782,-4503.297851563,2.220163584,0
1.784,-4504.227539063,1.003684521,0
1.786,-4508.408691406,-2.471339226,0
1.788,-4508.965332031,-2.355191708,0
1.790,-4514.202636719,-5.905110359,0
1.792,-4518.675781250,-8.071793556,0
1.794,-4516.231933594,-4.377370358,0
1.796,-4515.363281250,-2.728919029,0
1.798,-4520.500488281,-6.118076324,0
1.800,-4523.836425781,-7.353158951,0
1.802,-4525.392089844,-6.928966522,0
1.804,-4525.980957031,-5.846948147,0
1.806,-4524.600585938,-3.473856926,0
1.808,-4526.689453125,-4.326556683,0
1.810,-4532.711914063,-8.049130440,0
1.812,-4529.507812500,-3.768293858,0
1.814,-4529.910644531,-3.244455576,0
1.816,-4540.703125000,-10.917216301,0
1.818,-4542.170410156,-9.632314682,0
1.820,-4543.728027344,-8.703049660,0
1.822,-4547.337890625,-9.576663971,0
1.824,-4543.980468750,-4.837303162,0
1.826,-4543.907226563,-3.705084085,0
1.828,-4549.312500000,-7.085747719,0
1.830,-4548.326171875,-4.743884563,0
1.832,-4547.269531250,-2.868028164,0
1.834,-4551.574707031,-5.579114914,0
1.836,-4545.792480469,0.158209428,0
1.838,-4547.677246094,-1.342913032,0
1.840,-4560.029296875,-10.651478767,0
1.842,-4563.757812500,-11.184309959,0
1.844,-4563.628417969,-8.598328590,0
1.846,-4556.656250000,-1.264578223,0
1.848,-4550.483398438,3.817208290,0
1.850,-4555.552246094,-0.973437846,0
1.852,-4559.309570313,-3.679297447,0
1.854,-4555.319824219,0.241395518,0
1.856,-4552.719238281,2.210553885,0
1.858,-4559.661621094,-3.680300474,0
1.860,-4567.664550781,-9.087050438,0
1.862,-4572.855957031,-11.105118752,0
1.864,-4580.331542969,-14.451723099,0
1.866,-4575.863769531,-7.765106201,0
1.868,-4559.773925781,6.474655628,0
1.870,-4545.211914063,16.361780167,0
1.872,-4537.283203125,18.892261505,0
1.874,-4527.910644531,21.983716965,0
1.876,-4518.873046875,24.127130508,0
1.878,-4523.261718750,15.352162361,0
1.880,-4528.727539063,7.689146519,0
1.882,-4518.358398438,14.045173645,0
1.884,-4514.443359375,13.968886375,0
1.886,-4521.584960938,5.309950829,0
1.888,-4520.272460938,5.150583267,0
1.890,-4518.908203125,5.067114830,0
1.892,-4531.027343750,-5.484888077,0
1.894,-4544.046386719,-14.391748428,0
1.896,-4546.290527344,-12.938661575,0
1.898,-4540.470703125,-5.537013054,0
1.900,-4541.807617188,-5.346158504,0
1.902,-4546.793945313,-8.036147118,0
1.904,-4553.380859375,-11.373448372,0
1.906,-4560.237792969,-14.179033279,0
1.908,-4563.673339844,-13.699895859,0
1.910,-4571.381835938,-16.650930405,0
1.912,-4580.112304688,-19.740634918,0
1.914,-4587.503906250,-21.102581024,0
1.916,-4593.250488281,-20.882684708,0
1.918,-4594.416503906,-17.148668289,0
1.920,-4601.685546875,-18.991456985,0
1.922,-4607.878906250,-19.587812424,0
1.924,-4621.315917969,-25.685588837,0
1.926,-4631.071777344,-27.565122604,0
1.928,-4627.899902344,-18.972274780,0
1.930,-4622.133300781,-10.271195412,0
1.932,-4610.217773438,1.279198527,0
1.934,-4612.637695313,-0.887278557,0
1.936,-4614.642089844,-2.249042749,0
1.938,-4605.941894531,5.017405510,0
1.940,-4614.079589844,-2.427012444,0
1.942,-4626.555175781,-11.590778351,0
1.944,-4626.179687500,-8.722736359,0
1.946,-4622.986816406,-4.300816536,0
1.948,-4617.416503906,0.987052381,0
1.950,-4613.500976563,3.813390255,0
1.952,-4621.295898438,-3.096955776,0
1.954,-4619.190429688,-0.770888805,0
1.956,-4623.997558594,-4.338420868,0
1.958,-4637.278320313,-13.703583717,0
1.960,-4643.778808594,-15.714217186,0
1.962,-4643.551269531,-12.045142174,0
1.964,-4642.535644531,-8.578442574,0
1.966,-4649.082031250,-11.763342857,0
1.968,-4664.869628906,-21.428323746,0
1.970,-4672.475585938,-22.582134247,0
1.972,-4679.278320313,-22.854295731,0
1.974,-4687.187011719,-23.926626205,0
1.976,-4663.016113281,0.190057352,0
1.978,-4643.002441406,15.713683128,0
1.980,-4653.707031250,3.895828247,0
1.982,-4670.123535156,-9.737839699,0
1.984,-4717.108886719,-44.117835999,0
1.986,-4765.065917969,-71.612625122,0
1.988,-4813.087890625,-93.048080444,0
1.990,-4854.616699219,-104.669464111,0
1.992,-4859.465332031,-85.179618835,0
1.994,-4846.820312500,-56.415187836,0
1.996,-4839.222656250,-37.968757629,0
1.998,-4841.044921875,-30.948148727,0
2.000,-4830.235351563,-15.663040161,0
2.002,-4832.173828125,-13.689888954,0
2.004,-4872.363769531,-41.905914307,0
2.006,-4858.139648438,-21.529830933,0
2.008,-4757.200195313,61.762195587,0
2.010,-4628.168457031,148.393051147,0
2.012,-4386.890625000,303.073638916,0
2.014,-4075.490478516,477.917755127,0
2.016,-3790.641601563,593.255310059,0
2.018,-3395.199951172,768.976623535,0
2.020,-2955.164062500,940.330810547,0
2.022,-2686.626708984,940.218627930,0
2.024,-2595.947265625,801.799194336,0
2.026,-2554.939697266,655.507690430,0
2.028,-2591.748046875,481.204467773,0
2.030,-2808.485107422,205.694091797,0
2.032,-3055.881591797,-32.434745789,0
2.034,-3240.541503906,-168.849182129,0
2.036,-3422.479003906,-272.830444336,0
2.038,-3582.786132813,-336.880554199,0
2.040,-3734.481933594,-379.998779297,0
2.042,-3888.479492188,-415.325134277,0
2.044,-4025.344970703,-429.476074219,0
2.046,-4159.997070313,-438.760620117,0
2.048,-4287.644042969,-440.533508301,0
2.050,-4391.681640625,-423.549682617,0
2.052,-4459.898925781,-382.480621338,0
2.054,-4510.692871094,-336.987060547,0
2.056,-4562.607421875,-302.474884033,0
2.058,-4602.849121094,-266.554107666,0
2.060,-4634.511230469,-231.942733765,0
2.062,-4653.386718750,-195.078247070,0
2.064,-4651.638671875,-150.365921021,0
2.066,-4656.125976563,-120.440185547,0
2.068,-4665.335937500,-100.837394714,0
2.070,-4676.092285156,-86.794174194,0
2.072,-4687.835937500,-76.639526367,0
2.074,-4695.413574219,-65.501335144,0
2.076,-4688.225097656,-45.353801727,0
2.078,-4685.448730469,-33.115585327,0
2.080,-4700.888183594,-37.764533997,0
2.082,-4716.987304688,-41.893070221,0
2.084,-4727.816406250,-41.005603790,0
2.086,-4742.170410156,-43.057044983,0
2.088,-4741.622070313,-33.061866760,0
2.090,-4738.289062500,-23.122337341,0
2.092,-4753.020996094,-29.441576004,0
2.094,-4763.879882813,-31.344556808,0
2.096,-4748.479980469,-12.401241302,0
2.098,-4738.373046875,-1.784507275,0
2.100,-4740.446777344,-3.000555515,0
2.102,-4752.541992188,-11.741274834,0
2.104,-4771.343261719,-23.755075455,0
2.106,-4766.505371094,-14.713053703,0
2.108,-4744.587890625,5.603604794,0
2.110,-4736.319335938,10.789274216,0
2.112,-4741.611816406,4.275094509,0
2.114,-4748.301757813,-1.878028154,0
2.116,-4737.105957031,7.246943951,0
2.118,-4734.782226563,7.443660736,0
2.120,-4743.719238281,-1.161421657,0
2.122,-4741.340332031,0.946840346,0
2.124,-4761.033203125,-14.579849243,0
2.126,-4771.370605469,-19.379785538,0
2.128,-4749.901855469,1.624612451,0
2.130,-4748.387695313,2.441299677,0
2.132,-4759.972656250,-7.111571312,0
2.134,-4763.791503906,-8.501578331,0
2.136,-4762.873535156,-5.898111820,0
2.138,-4765.269531250,-6.451188564,0
2.140,-4764.722656250,-4.592086792,0
2.142,-4758.869140625,0.981076300,0
2.144,-4764.764648438,-3.822123051,0
2.146,-4773.603515625,-9.847490311,0
2.148,-4776.727050781,-10.088180542,0
2.150,-4794.672363281,-21.803831100,0
2.152,-4787.749511719,-11.573793411,0
2.154,-4764.111816406,9.382905960,0
2.156,-4764.035644531,7.356962681,0
2.158,-4768.809570313,2.008891344,0
2.160,-4771.899414063,-0.840441167,0
2.162,-4781.524902344,-8.140328407,0
2.164,-4785.520996094,-9.439173698,0
2.166,-4779.258789063,-2.471126318,0
2.168,-4773.385742188,2.645951033,0
2.170,-4783.283203125,-5.640023708,0
2.172,-4793.539550781,-12.363403320,0
2.174,-4784.472167969,-2.563824177,0
2.176,-4776.747558594,4.013839722,0
2.178,-4778.837402344,1.496621490,0
2.180,-4790.915527344,-8.229864120,0
2.182,-4798.905273438,-12.615112305,0
2.184,-4805.147460938,-14.666743279,0
2.186,-4807.071777344,-12.904091835,0
2.188,-4799.146972656,-3.872404814,0
2.190,-4794.169433594,0.859456718,0
2.192,-4796.397460938,-1.064463139,0
2.194,-4799.302734375,-3.087643623,0
2.196,-4787.827148438,6.523917198,0
2.198,-4777.737304688,12.921522141,0
2.200,-4786.378906250,3.328986168,0
2.202,-4791.214355469,-1.171655774,0
2.204,-4795.084472656,-3.921589375,0
2.206,-4812.551269531,-16.635168076,0
2.208,-4819.765625000,-18.549108505,0
2.210,-4812.705566406,-8.935893059,0
2.212,-4812.191894531,-6.550727367,0
2.214,-4815.367675781,-7.564968109,0
2.216,-4821.559570313,-10.699377060,0
2.218,-4815.116699219,-3.310720682,0
2.220,-4807.932617188,3.012500525,0
2.222,-4811.766601563,-0.638953805,0
2.224,-4802.443847656,6.754106045,0
2.226,-4804.599121094,3.576973915,0
2.228,-4816.444335938,-6.430853844,0
2.230,-4807.490234375,1.962476850,0
2.232,-4806.343261719,2.418525934,0
2.234,-4810.229980469,-1.142006993,0
2.236,-4803.179687500,4.595265388,0
2.238,-4809.570800781,-1.396598697,0
2.240,-4818.730957031,-8.210733414,0
2.242,-4812.562988281,-1.589095473,0
2.244,-4810.494628906,0.372885972,0
2.246,-4814.230957031,-2.615876436,0
2.248,-4817.238281250,-4.373471737,0
2.250,-4816.470703125,-2.804547071,0
2.252,-4811.906738281,1.368250608,0
2.254,-4802.537597656,8.351032257,0
2.256,-4788.998535156,17.025442123,0
2.258,-4783.461425781,17.548402786,0
2.260,-4764.000976563,28.784435272,0
2.262,-4742.624511719,39.013645172,0
2.264,-4742.604980469,30.358795166,0
2.266,-4736.288574219,28.524662018,0
2.268,-4743.572265625,16.520608902,0
2.270,-4752.174804688,6.158425808,0
2.272,-4742.325195313,12.450616837,0
2.274,-4741.001953125,10.712578773,0
2.276,-4749.325683594,1.858114123,0
2.278,-4748.685546875,1.942967415,0
2.280,-4747.729492188,2.254690886,0
2.282,-4756.613769531,-5.156229496,0
2.284,-4765.538574219,-10.951609612,0
2.286,-4761.484863281,-5.365073681,0
2.288,-4770.731445313,-11.364451408,0
2.290,-4782.770996094,-18.202913284,0
2.292,-4778.095214844,-10.521106720,0
2.294,-4780.538574219,-10.083332062,0
2.296,-4793.634765625,-18.028110504,0
2.298,-4810.154785156,-26.870407104,0
2.300,-4830.805664063,-36.960563660,0
2.302,-4835.902343750,-32.710891724,0
2.304,-4831.451660156,-21.979713440,0
2.306,-4842.106445313,-25.382017136,0
2.308,-4856.026367188,-30.567819595,0
2.310,-4845.033691406,-15.224975586,0
2.312,-4831.489746094,-1.307288051,0
2.314,-4824.388671875,4.506062508,0
2.316,-4808.997070313,15.475991249,0
2.318,-4801.361328125,17.975496292,0
2.320,-4815.919921875,2.657354832,0
2.322,-4838.135253906,-15.211353302,0
2.324,-4842.345703125,-15.105944633,0
2.326,-4855.533203125,-22.005392075,0
2.328,-4896.112792969,-48.676856995,0
2.330,-4914.248535156,-51.964717865,0
2.332,-4896.229980469,-26.402212143,0
2.334,-4876.993164063,-5.572792530,0
2.336,-4873.763671875,-1.822487116,0
2.338,-4853.998046875,13.955269814,0
2.340,-4801.346191406,51.805156708,0
2.342,-4792.604492188,47.091442108,0
2.344,-4809.456054688,23.519338608,0
2.346,-4791.662597656,32.132003784,0
2.348,-4794.899902344,22.473186493,0
2.350,-4833.442871094,-12.498554230,0
2.352,-4883.455566406,-48.619171143,0
2.354,-4903.836425781,-53.666069031,0
2.356,-4866.744140625,-12.890372276,0
2.358,-4829.348632813,19.059125900,0
2.360,-4820.059570313,22.048236847,0
2.362,-4826.533203125,12.113502502,0
2.364,-4833.560058594,3.956305742,0
2.366,-4849.885742188,-9.620666504,0
2.368,-4869.638671875,-22.845769882,0
2.370,-4856.662597656,-7.676418304,0
2.372,-4846.750000000,1.739419460,0
2.374,-4857.909667969,-7.326822281,0
2.376,-4890.667480469,-31.176414490,0
2.378,-4931.062500000,-55.666080475,0
2.380,-4917.688476563,-32.893470764,0
2.382,-4858.383789063,20.542036057,0
2.384,-4817.814941406,47.529903412,0
2.386,-4824.133789063,32.052818298,0
2.388,-4838.374023438,13.853794098,0
2.390,-4822.467773438,23.146522522,0
2.392,-4819.151367188,20.582118988,0
2.394,-4862.686035156,-17.851964951,0
2.396,-4879.957519531,-27.317760468,0
2.398,-4838.142578125,11.275328636,0
2.400,-4800.981445313,37.672214508,0
2.402,-4807.378417969,24.325077057,0
2.404,-4834.745605469,-2.366061926,0
2.406,-4868.545898438,-28.129096985,0
2.408,-4925.518066406,-66.188827515,0
2.410,-4948.353515625,-69.240196228,0
2.412,-4880.619140625,-1.171349406,0
2.414,-4843.917480469,27.634498596,0
2.416,-4856.410156250,11.776664734,0
2.418,-4847.068359375,16.425380707,0
2.420,-4842.975097656,15.958446503,0
2.422,-4855.558105469,2.625391245,0
2.424,-4856.468750000,1.333595276,0
2.426,-4842.640136719,11.792834282,0
2.428,-4823.259277344,24.246032715,0
2.430,-4823.274902344,18.845502853,0
2.432,-4847.179687500,-3.934942961,0
2.434,-4852.091308594,-6.880743504,0
2.436,-4817.330566406,21.684478760,0
2.438,-4813.721191406,19.672599792,0
2.440,-4845.823730469,-9.667594910,0
2.442,-4852.210937500,-12.486909866,0
2.444,-4861.780273438,-17.154521942,0
2.446,-4884.531738281,-31.037776947,0
2.448,-4879.054199219,-19.880020142,0
2.450,-4878.640136719,-15.139809608,0
2.452,-4879.458007813,-12.411473274,0
2.454,-4833.828613281,25.835863113,0
2.456,-4821.250000000,29.877700806,0
2.458,-4845.853027344,4.102192879,0
2.460,-4847.548339844,1.872271776,0
2.462,-4830.373046875,14.814337730,0
2.464,-4839.938476563,4.082406044,0
2.466,-4851.841796875,-6.082673073,0
2.468,-4842.516113281,2.522266388,0
2.470,-4867.412109375,-17.401702881,0
2.472,-4887.744140625,-29.347900391,0
2.474,-4870.359375000,-9.304769516,0
2.476,-4858.624511719,1.890333533,0
2.478,-4834.039062500,20.592000961,0
2.480,-4817.700195313,28.723464966,0
2.482,-4862.113769531,-12.203064919,0
2.484,-4862.067382813,-9.455377579,0
2.486,-4819.004394531,26.138902664,0
2.488,-4824.907226563,15.739153862,0
2.490,-4854.196289063,-10.538710594,0
2.492,-4867.563964844,-18.593446732,0
2.494,-4872.287597656,-18.135351181,0
2.496,-4894.451171875,-31.343246460,0
2.498,-4912.710937500,-38.579742432,0
2.500,-4901.696777344,-21.439641953,0
2.502,-4877.879882813,1.848975062,0
2.504,-4864.472656250,11.865863800,0
2.506,-4840.592773438,27.802066803,0
2.508,-4849.633300781,14.592133522,0
2.510,-4879.647460938,-11.995047569,0
2.512,-4878.335449219,-8.308979988,0
2.514,-4873.397460938,-2.621516228,0
2.516,-4866.771972656,3.113919973,0
2.518,-4860.408691406,7.371138096,0
2.520,-4855.843750000,9.283370018,0
2.522,-4857.979980469,5.558829308,0
2.524,-4847.450195313,12.513356209,0
2.526,-4838.130859375,16.980894089,0
2.528,-4846.325195313,6.833900928,0
2.530,-4843.486816406,7.522812366,0
2.532,-4849.693359375,1.023430228,0
2.534,-4869.070800781,-14.274957657,0
2.536,-4872.630859375,-13.871712685,0
2.538,-4857.322265625,1.117665172,0
2.540,-4833.163574219,19.659223557,0
2.542,-4826.143066406,20.750583649,0
2.544,-4828.998046875,13.918731689,0
2.546,-4851.350097656,-6.559117794,0
2.548,-4905.419921875,-47.155258179,0
2.550,-4902.388183594,-34.317970276,0
2.552,-4842.962890625,19.527681351,0
2.554,-4806.764160156,43.342277527,0
2.556,-4795.690429688,42.322963715,0
2.558,-4816.969726563,16.367170334,0
2.560,-4871.309570313,-29.534111023,0
2.562,-4931.268554688,-69.604942322,0
2.564,-5010.366210938,-115.655906677,0
2.566,-5045.306640625,-117.129081726,0
2.568,-4996.655761719,-53.259910583,0
2.570,-4949.395019531,-4.665938854,0
2.572,-4927.773437500,13.187291145,0
2.574,-4893.497070313,36.915889740,0
2.576,-4865.111816406,50.788887024,0
2.578,-4869.356933594,36.200546265,0
2.580,-4892.061035156,10.496878624,0
2.582,-4907.544433594,-3.878425837,0
2.584,-4945.762207031,-32.740985870,0
2.586,-5027.149414063,-88.765052795,0
2.588,-5044.709960938,-82.696601868,0
2.590,-4983.698730469,-16.866336823,0
2.592,-4944.045898438,17.722616196,0
2.594,-4935.187988281,20.673482895,0
2.596,-4931.680664063,18.807170868,0
2.598,-4953.103515625,-2.034510851,0
2.600,-4981.166015625,-23.408313751,0
2.602,-4965.627441406,-6.120957375,0
2.604,-4935.725585938,18.495935440,0
2.606,-4923.401855469,23.970697403,0
2.608,-4893.981933594,41.525535583,0
2.610,-4856.542480469,61.416126251,0
2.612,-4869.818359375,37.442138672,0
2.614,-4920.832031250,-10.555590630,0
2.616,-4932.855468750,-17.561300278,0
2.618,-4942.022949219,-20.788503647,0
2.620,-5015.015136719,-72.939910889,0
2.622,-5033.543457031,-71.141044617,0
2.624,-4977.036132813,-11.381443024,0
2.626,-4964.348632813,1.015677929,0
2.628,-4994.294921875,-22.501358032,0
2.630,-5024.896972656,-41.302127838,0
2.632,-5007.840820313,-18.857620239,0
2.634,-4980.189941406,6.839347363,0
2.636,-4996.573242188,-7.423291683,0
2.638,-5022.125000000,-25.646915436,0
2.640,-5023.737792969,-21.201627731,0
2.642,-4998.047363281,3.491224051,0
2.644,-4994.973632813,5.106123447,0
2.646,-4992.436523438,5.944675446,0
2.648,-4959.990234375,29.859058380,0
2.650,-4966.138183594,18.441888809,0
2.652,-5052.399414063,-52.747714996,0
2.654,-5143.589843750,-111.950485229,0
2.656,-5167.587890625,-105.736442566,0
2.658,-5172.359863281,-85.949752808,0
2.660,-5075.354492188,8.598775864,0
2.662,-4798.699218750,221.861206055,0
2.664,-4473.081054688,425.811767578,0
2.666,-4170.123046875,566.813781738,0
2.668,-3894.610595703,655.133911133,0
2.670,-3606.223876953,733.839965820,0
2.672,-3353.198486328,767.551940918,0
2.674,-3225.846923828,696.026916504,0
2.676,-3123.429687500,621.004211426,0
2.678,-3050.790527344,539.493347168,0
2.680,-3168.115966797,328.348541260,0
2.682,-3415.587402344,62.903617859,0
2.684,-3639.843017578,-125.494331360,0
2.686,-3804.779785156,-225.887954712,0
2.688,-3895.264160156,-246.064178467,0
2.690,-3975.917968750,-254.110702515,0
2.692,-4123.653320313,-312.542785645,0
2.694,-4272.993164063,-359.237457275,0
2.696,-4345.720703125,-335.968322754,0
2.698,-4367.779296875,-278.461700439,0
2.700,-4418.390625000,-255.942413330,0
2.702,-4489.241699219,-254.169586182,0
2.704,-4562.187011719,-254.419219971,0
2.706,-4644.112304688,-261.598114014,0
2.708,-4689.160644531,-238.499588013,0
2.710,-4672.706054688,-172.699615479,0
2.712,-4643.408691406,-111.533546448,0
2.714,-4628.519042969,-75.166473389,0
2.716,-4622.857910156,-54.058952332,0
2.718,-4638.458496094,-54.178939819,0
2.720,-4671.108398438,-67.532554626,0
2.722,-4708.451171875,-81.568809509,0
2.724,-4733.902343750,-83.236473083,0
2.726,-4723.814453125,-56.892829895,0
2.728,-4718.033691406,-39.753391266,0
2.730,-4698.798339844,-15.958168030,0
2.732,-4644.338867188,29.944997787,0
2.734,-4640.487304688,26.286003113,0
2.736,-4697.311035156,-23.751276016,0
2.738,-4734.578613281,-47.458488464,0
2.740,-4702.350097656,-11.845520973,0
2.742,-4619.968750000,54.860759735,0
2.744,-4550.093261719,97.015647888,0
2.746,-4564.701171875,64.093978882,0
2.748,-4626.046386719,2.137873411,0
2.750,-4688.815429688,-47.156726837,0
2.752,-4787.067382813,-113.094078064,0
2.754,-4817.049316406,-111.280204773,0
2.756,-4738.002441406,-25.069913864,0
2.758,-4646.734863281,51.486423492,0
2.760,-4597.901367188,78.025505066,0
2.762,-4583.829589844,71.630340576,0
2.764,-4576.931152344,61.077007294,0
2.766,-4565.532714844,56.369117737,0
2.768,-4567.478027344,42.329246521,0
2.770,-4583.102050781,20.770408630,0
2.772,-4588.295898438,12.114995003,0
2.774,-4597.928710938,1.930550694,0
2.776,-4621.538574219,-16.861446381,0
2.778,-4630.386230469,-19.995824814,0
2.780,-4618.658203125,-6.430473804,0
2.782,-4597.833496094,11.195533752,0
2.784,-4554.656738281,42.288993835,0
2.786,-4506.114257813,70.645721436,0
2.788,-4491.758789063,66.111213684,0
2.790,-4516.202636719,32.407455444,0
2.792,-4547.689453125,0.716188550,0
2.794,-4538.731445313,7.524360657,0
2.796,-4493.430664063,41.085586548,0
2.798,-4480.440429688,42.058532715,0
2.800,-4511.039550781,8.912766457,0
2.802,-4540.597656250,-16.057313919,0
2.804,-4563.085937500,-29.979740143,0
2.806,-4532.848632813,0.200392753,0
2.808,-4475.250976563,44.953495026,0
2.810,-4473.513183594,36.315074921,0
2.812,-4458.135253906,40.204868317,0
2.814,-4405.104003906,72.516136169,0
2.816,-4384.133300781,72.711219788,0
2.818,-4376.098144531,62.801780701,0
2.820,-4376.990234375,48.151355743,0
2.822,-4412.320800781,9.971776009,0
2.824,-4418.415527344,3.015420198,0
2.826,-4358.808105469,48.705993652,0
2.828,-4362.349609375,35.127334595,0
2.830,-4446.778808594,-38.345394135,0
2.832,-4480.178222656,-55.800800323,0
2.834,-4491.863769531,-52.488739014,0
2.836,-4483.771972656,-34.530399323,0
2.838,-4394.148437500,42.849754333,0
2.840,-4366.523437500,54.813003540,0
2.842,-4375.153808594,35.919063568,0
2.844,-4329.180664063,63.693210602,0
2.846,-4307.929687500,66.066780090,0
2.848,-4320.854980469,41.331748962,0
2.850,-4338.278320313,18.595239639,0
2.852,-4341.045898438,12.310113907,0
2.854,-4336.354492188,13.223572731,0
2.856,-4327.356933594,17.282842636,0
2.858,-4303.730957031,31.817241669,0
2.860,-4312.562011719,17.877986908,0
2.862,-4341.473144531,-8.581095695,0
2.864,-4330.539550781,1.829581738,0
2.866,-4275.344726563,44.351768494,0
2.868,-4223.746093750,74.627319336,0
2.870,-4223.281738281,58.403644562,0
2.872,-4239.373046875,32.909427643,0
2.874,-4245.886230469,20.529899597,0
2.876,-4286.146972656,-15.345848083,0
2.878,-4319.597167969,-37.952049255,0
2.880,-4318.572753906,-28.721195221,0
2.882,-4326.422851563,-28.443964005,0
2.884,-4291.114257813,5.339116573,0
2.886,-4244.066894531,40.744525909,0
2.888,-4229.690429688,42.871490479,0
2.890,-4190.683105469,63.682518005,0
2.892,-4161.811523438,71.985458374,0
2.894,-4162.905761719,55.137123108,0
2.896,-4170.373535156,37.075695038,0
2.898,-4162.606445313,34.877120972,0
2.900,-4147.542968750,38.842418671,0
2.902,-4137.416992188,38.085746765,0
2.904,-4087.526123047,68.425430298,0
2.906,-4036.234130859,93.112426758,0
2.908,-4034.350585938,73.884773254,0
2.910,-4041.497558594,51.906558990,0
2.912,-4079.809570313,10.573276520,0
2.914,-4139.402832031,-38.126033783,0
2.916,-4147.737792969,-36.135780334,0
2.918,-4146.737792969,-27.327434540,0
2.920,-4161.271484375,-32.558593750,0
2.922,-4115.848632813,10.005439758,0
2.924,-4091.429443359,26.774484634,0
2.926,-4101.241699219,13.192775726,0
2.928,-4067.253417969,36.695808411,0
2.930,-4059.029052734,34.937477112,0
2.932,-4087.473144531,5.050266266,0
2.934,-4102.784179688,-7.980493069,0
2.936,-4163.698242188,-53.583961487,0
2.938,-4231.698730469,-94.564247131,0
2.940,-4207.077148438,-54.399318695,0
2.942,-4182.260742188,-23.008687973,0
2.944,-4194.452148438,-27.377334595,0
2.946,-4204.699218750,-29.262985229,0
2.948,-4225.339355469,-38.813240051,0
2.950,-4225.102539063,-30.003328323,0
2.952,-4202.683593750,-5.899104595,0
2.954,-4181.983398438,11.512011528,0
2.956,-4162.587890625,24.038795471,0
2.958,-4170.412109375,12.611177444,0
2.960,-4207.900878906,-19.348995209,0
2.962,-4259.023437500,-54.810676575,0
2.964,-4298.354980469,-73.220672607,0
2.966,-4292.268554688,-52.214611053,0
2.968,-4260.293457031,-15.741773605,0
2.970,-4224.855957031,15.318657875,0
2.972,-4185.547851563,42.487129211,0
2.974,-4177.326660156,39.439308167,0
2.976,-4183.935546875,25.534154892,0
2.978,-4198.140136719,8.811792374,0
2.980,-4224.295410156,-13.489094734,0
2.982,-4224.991210938,-11.032502174,0
2.984,-4211.374023438,2.010334969,0
2.986,-4220.183593750,-5.288295269,0
2.988,-4238.929199219,-18.692878723,0
2.990,-4225.428222656,-4.038214684,0
2.992,-4222.929687500,-1.197283030,0
2.994,-4223.408203125,-1.303602815,0
2.996,-4221.218261719,0.689421773,0
2.998,-4243.037597656,-16.434076309,0
3.000,-4247.844238281,-16.520456314,0
3.002,-4234.225097656,-2.256433725,0
3.004,-4221.235351563,8.348155022,0
3.006,-4221.605957031,6.204525471,0
3.008,-4240.279296875,-9.697644234,0
3.010,-4243.084472656,-9.724496841,0
3.012,-4221.830078125,8.967647552,0
3.014,-4235.280273438,-3.486598253,0
3.016,-4253.085937500,-16.560274124,0
3.018,-4228.089843750,6.561258793,0
3.020,-4216.110351563,14.420124054,0
3.022,-4214.295898438,12.626719475,0
3.024,-4228.526855469,-1.247539043,0
3.026,-4260.752929688,-26.034742355,0
3.028,-4256.196777344,-16.705188751,0
3.030,-4228.729980469,8.369752884,0
3.032,-4222.264160156,11.538860321,0
3.034,-4203.303710938,23.721256256,0
3.036,-4173.949218750,41.280452728,0
3.038,-4200.134277344,11.740792274,0
3.040,-4229.635742188,-13.813734055,0
3.042,-4219.749023438,-3.054215193,0
3.044,-4212.168457031,3.520597696,0
3.046,-4203.175781250,9.732330322,0
3.048,-4191.727050781,16.474018097,0
3.050,-4191.194824219,13.226702690,0
3.052,-4196.419433594,6.223750591,0
3.054,-4198.361816406,3.329945564,0
3.056,-4205.853515625,-3.236644268,0
3.058,-4228.923828125,-20.460842133,0
3.060,-4264.233398438,-43.376430511,0
3.062,-4259.272460938,-29.878244400,0
3.064,-4233.683593750,-3.336123943,0
3.066,-4230.982421875,-0.493745267,0
3.068,-4213.568359375,13.159800529,0
3.070,-4197.100585938,23.043432236,0
3.072,-4228.114257813,-6.199139595,0
3.074,-4240.458984375,-14.422482491,0
3.076,-4207.008789063,14.798810005,0
3.078,-4199.411132813,17.419260025,0
3.080,-4234.830566406,-13.999609947,0
3.082,-4279.916015625,-45.954524994,0
3.084,-4309.675292969,-58.887863159,0
3.086,-4305.057617188,-42.209709167,0
3.088,-4286.426269531,-18.338495255,0
3.090,-4241.892578125,20.373970032,0
3.092,-4190.205566406,56.046749115,0
3.094,-4205.182128906,31.942821503,0
3.096,-4252.688476563,-12.104521751,0
3.098,-4280.297851563,-30.888227463,0
3.100,-4270.203613281,-16.173082352,0
3.102,-4245.051269531,6.983714104,0
3.104,-4239.952148438,9.397657394,0
3.106,-4252.309082031,-2.301556110,0
3.108,-4271.315429688,-16.572725296,0
3.110,-4274.159667969,-15.101863861,0
3.112,-4266.444824219,-5.745066166,0
3.114,-4264.379882813,-2.862393141,0
3.116,-4274.757324219,-10.297745705,0
3.118,-4301.983398438,-29.184780121,0
3.120,-4309.540527344,-28.576419830,0
3.122,-4301.881347656,-16.269041061,0
3.124,-4301.795898438,-12.587028503,0
3.126,-4293.715332031,-3.504959345,0
3.128,-4275.476074219,11.459959030,0
3.130,-4246.880859375,31.153556824,0
3.132,-4223.923828125,42.085563660,0
3.134,-4237.583984375,22.108316422,0
3.136,-4274.529785156,-11.540063858,0
3.138,-4344.311035156,-63.249095917,0
3.140,-4388.382324219,-83.470428467,0
3.142,-4352.060058594,-36.670349121,0
3.144,-4331.957519531,-12.885853767,0
3.146,-4338.057128906,-14.766159058,0
3.148,-4315.317382813,6.201344967,0
3.150,-4294.889160156,20.711875916,0
3.152,-4271.591308594,34.229328156,0
3.154,-4268.424316406,29.085491180,0
3.156,-4273.234375000,18.880750656,0
3.158,-4270.376464844,16.907587051,0
3.160,-4275.758300781,8.964256287,0
3.162,-4251.669433594,25.707611084,0
3.164,-4209.919921875,52.466316223,0
3.166,-4196.070800781,51.577861786,0
3.168,-4214.473632813,25.802417755,0
3.170,-4269.756835938,-22.928989410,0
3.172,-4307.431152344,-47.135532379,0
3.174,-4326.185546875,-51.247154236,0
3.176,-4337.949707031,-49.008155823,0
3.178,-4301.453125000,-9.730929375,0
3.180,-4274.469726563,13.418357849,0
3.182,-4276.745605469,8.666142464,0
3.184,-4284.516113281,0.696692407,0
3.186,-4294.313964844,-7.078535557,0
3.188,-4301.248046875,-10.898643494,0
3.190,-4290.029296875,0.248905778,0
3.192,-4270.159667969,15.647840500,0
3.194,-4273.833496094,9.312771797,0
3.196,-4288.949707031,-4.513525009,0
3.198,-4318.553710938,-26.535623550,0
3.200,-4365.888671875,-57.454330444,0
3.202,-4375.507324219,-52.167205811,0
3.204,-4350.612304688,-21.211091995,0
3.206,-4329.901367188,-0.389272064,0
3.208,-4328.623046875,0.691727877,0
3.210,-4344.191894531,-11.571091652,0
3.212,-4361.797851563,-22.692802429,0
3.214,-4366.052734375,-20.959045410,0
3.216,-4351.247070313,-4.785973072,0
3.218,-4316.938964844,22.961376190,0
3.220,-4308.522460938,24.404766083,0
3.222,-4330.757812500,1.687088609,0
3.224,-4333.597656250,-0.896371901,0
3.226,-4346.303222656,-10.579169273,0
3.228,-4366.324218750,-23.799861908,0
3.230,-4346.303710938,-2.939694166,0
3.232,-4342.672851563,0.537615538,0
3.234,-4361.202148438,-13.993411064,0
3.236,-4365.498535156,-14.225215912,0
3.238,-4374.577636719,-18.125234604,0
3.240,-4387.591308594,-24.218851089,0
3.242,-4380.549316406,-13.359619141,0
3.244,-4367.660644531,-0.366102666,0
3.246,-4361.546386719,4.470709801,0
3.248,-4355.088378906,8.500031471,0
3.250,-4348.478027344,11.752251625,0
3.252,-4347.203125000,10.132006645,0
3.254,-4344.312500000,10.128759384,0
3.256,-4338.551269531,12.358669281,0
3.258,-4333.941894531,13.197316170,0
3.260,-4322.763671875,18.958276749,0
3.262,-4326.528320313,11.817117691,0
3.264,-4373.465820313,-27.315513611,0
3.266,-4446.988281250,-78.428283691,0
3.268,-4487.134765625,-92.223838806,0
3.270,-4492.418457031,-75.838005066,0
3.272,-4501.583496094,-66.112930298,0
3.274,-4508.605468750,-56.881938934,0
3.276,-4511.133789063,-46.207317352,0
3.278,-4510.591796875,-35.517097473,0
3.280,-4534.201171875,-45.986583710,0
3.282,-4554.170410156,-51.298282623,0
3.284,-4528.926269531,-20.263822556,0
3.286,-4520.149414063,-8.934318542,0
3.288,-4513.916503906,-2.101281404,0
3.290,-4430.136718750,63.527175903,0
3.292,-4288.236328125,159.774673462,0
3.294,-4096.679687500,273.254364014,0
3.296,-3835.048583984,416.016540527,0
3.298,-3545.800781250,548.531799316,0
3.300,-3213.301513672,685.237487793,0
3.302,-2829.986328125,831.085754395,0
3.304,-2564.470947266,852.901000977,0
3.306,-2470.780517578,736.228149414,0
3.308,-2410.553222656,619.457336426,0
3.310,-2386.357177734,500.612701416,0
3.312,-2542.925292969,267.586791992,0
3.314,-2862.132080078,-40.148395538,0
3.316,-3121.764648438,-233.159973145,0
3.318,-3270.845214844,-297.294219971,0
3.320,-3389.660888672,-323.636810303,0
3.322,-3508.543457031,-344.177368164,0
3.324,-3647.302001953,-375.611877441,0
3.326,-3804.585693359,-414.468994141,0
3.328,-3933.684570313,-422.769409180,0
3.330,-4036.677978516,-408.921417236,0
3.332,-4151.103515625,-407.042449951,0
3.334,-4228.304199219,-376.628509521,0
3.336,-4242.195312500,-303.733520508,0
3.338,-4249.496582031,-241.912750244,0
3.340,-4283.372558594,-214.499511719,0
3.342,-4304.868652344,-183.549850464,0
3.344,-4307.291015625,-144.643386841,0
3.346,-4322.484863281,-124.316123962,0
3.348,-4329.409179688,-102.074470520,0
3.350,-4327.679199219,-78.044837952,0
3.352,-4335.697265625,-66.936981201,0
3.354,-4334.387207031,-51.042236328,0
3.356,-4336.464355469,-41.314647675,0
3.358,-4345.474121094,-39.140716553,0
3.360,-4345.403320313,-30.387338638,0
3.362,-4368.018066406,-41.223175049,0
3.364,-4394.246093750,-52.461483002,0
3.366,-4406.751953125,-50.529617310,0
3.368,-4427.500000000,-55.437427521,0
3.370,-4429.515625000,-44.685203552,0
3.372,-4418.751464844,-26.382469177,0
3.374,-4398.891601563,-5.073251724,0
3.376,-4378.267089844,12.095398903,0
3.378,-4374.500976563,12.336498260,0
3.380,-4386.336425781,0.389696062,0
3.382,-4410.234863281,-18.284387589,0
3.384,-4426.742675781,-27.060073853,0
3.386,-4428.764648438,-22.619283676,0
3.388,-4414.789550781,-6.722899437,0
3.390,-4393.123535156,11.622052193,0
3.392,-4378.207519531,20.640529633,0
3.394,-4374.053222656,19.284740448,0
3.396,-4379.940917969,10.419626236,0
3.398,-4379.883300781,8.149015427,0
3.400,-4377.655273438,8.070672989,0
3.402,-4385.300781250,0.330611944,0
3.404,-4386.819824219,-0.924084306,0
3.406,-4384.027832031,1.452693224,0
3.408,-4387.420410156,-1.508859038,0
3.410,-4380.440429688,4.255322456,0
3.412,-4370.833984375,10.781188011,0
3.414,-4382.662597656,-0.814699411,0
3.416,-4396.703613281,-11.554025650,0
3.418,-4395.345703125,-7.930148602,0
3.420,-4386.152832031,0.981842101,0
3.422,-4363.524414063,18.363521576,0
3.424,-4370.184082031,9.102890968,0
3.426,-4398.058105469,-14.599565506,0
3.428,-4381.125000000,1.814690232,0
3.430,-4364.447265625,14.383086205,0
3.432,-4371.988769531,5.320905209,0
3.434,-4370.113769531,5.596723557,0
3.436,-4378.525390625,-2.189368010,0
3.438,-4398.319335938,-17.097719193,0
3.440,-4382.918457031,-1.319902778,0
3.442,-4359.086425781,17.509462357,0
3.444,-4357.126953125,15.142295837,0
3.446,-4337.985351563,26.664743423,0
3.448,-4342.264648438,17.410858154,0
3.450,-4366.697753906,-5.461670876,0
3.452,-4372.441406250,-8.715417862,0
3.454,-4395.687011719,-24.858051300,0
3.456,-4392.655273438,-16.975959778,0
3.458,-4374.264160156,1.100726366,0
3.460,-4382.129882813,-5.261421204,0
3.462,-4377.011718750,-0.111512661,0
3.464,-4370.385742188,5.066819668,0
3.466,-4374.142089844,1.018981814,0
3.468,-4368.102539063,5.490165234,0
3.470,-4372.254882813,1.040163159,0
3.472,-4369.462402344,2.980995417,0
3.474,-4363.453125000,6.992296219,0
3.476,-4367.045410156,2.644466162,0
3.478,-4353.300781250,12.747124672,0
3.480,-4336.747070313,22.789285660,0
3.482,-4359.153320313,0.297656238,0
3.484,-4383.774414063,-18.917842865,0
3.486,-4386.525878906,-16.853878021,0
3.488,-4390.698242188,-16.353260040,0
3.490,-4384.582519531,-7.962669849,0
3.492,-4355.096191406,16.740499496,0
3.494,-4316.908691406,42.721225739,0
3.496,-4289.686523438,54.399787903,0
3.498,-4310.823242188,25.870861053,0
3.500,-4361.136718750,-19.010725021,0
3.502,-4383.167480469,-31.920747757,0
3.504,-4388.865722656,-29.258647919,0
3.506,-4369.989746094,-8.075508118,0
3.508,-4341.480468750,15.892639160,0
3.510,-4356.354492188,0.792460144,0
3.512,-4374.302734375,-13.343225479,0
3.514,-4357.388183594,2.777758598,0
3.516,-4328.181640625,24.876411438,0
3.518,-4333.275390625,15.385957718,0
3.520,-4360.873535156,-9.498206139,0
3.522,-4362.425292969,-8.593980789,0
3.524,-4357.989746094,-3.234326839,0
3.526,-4355.745117188,-0.769872248,0
3.528,-4317.677246094,29.009199142,0
3.530,-4294.843261719,40.322040558,0
3.532,-4325.647460938,7.402615070,0
3.534,-4341.460937500,-6.541624069,0
3.536,-4336.203613281,-0.999152184,0
3.538,-4337.544921875,-1.820246458,0
3.540,-4316.017578125,15.327688217,0
3.542,-4295.953613281,27.526176453,0
3.544,-4317.618164063,4.559088707,0
3.546,-4323.704589844,-1.187770724,0
3.548,-4300.360839844,17.232006073,0
3.550,-4286.192382813,24.422321320,0
3.552,-4292.347656250,14.207534790,0
3.554,-4304.175781250,1.850638270,0
3.556,-4301.213867188,3.743055820,0
3.558,-4307.969726563,-2.343383074,0
3.560,-4323.397949219,-13.822134018,0
3.562,-4315.242675781,-4.407505035,0
3.564,-4300.669433594,7.906846523,0
3.566,-4318.474121094,-7.698289394,0
3.568,-4352.624511719,-32.548439026,0
3.570,-4377.861328125,-44.943523407,0
3.572,-4406.264648438,-57.047073364,0
3.574,-4418.826660156,-54.139503479,0
3.576,-4423.305175781,-45.591117859,0
3.578,-4443.371093750,-51.065933228,0
3.580,-4437.578613281,-35.212207794,0
3.582,-4429.344238281,-20.982707977,0
3.584,-4454.251464844,-35.691566467,0
3.586,-4468.307128906,-38.691955566,0
3.588,-4469.219726563,-30.803190231,0
3.590,-4468.393066406,-23.314529419,0
3.592,-4455.529785156,-8.128850937,0
3.594,-4441.811523438,4.347517014,0
3.596,-4447.887207031,-1.344385624,0
3.598,-4468.436035156,-17.027608871,0
3.600,-4497.874023438,-36.139663696,0
3.602,-4525.821289063,-49.844825745,0
3.604,-4537.518066406,-47.864891052,0
3.606,-4513.148437500,-18.273912430,0
3.608,-4490.699707031,3.247022629,0
3.610,-4492.150878906,1.396738052,0
3.612,-4494.953613281,-1.093561888,0
3.614,-4501.819824219,-6.190638542,0
3.616,-4504.675781250,-7.036358833,0
3.618,-4505.045898438,-5.760525227,0
3.620,-4504.673339844,-4.190454483,0
3.622,-4490.160644531,8.028134346,0
3.624,-4494.144531250,3.145586014,0
3.626,-4515.017089844,-13.787297249,0
3.628,-4530.849121094,-23.036996841,0
3.630,-4536.464843750,-22.285129547,0
3.632,-4521.533203125,-5.719302177,0
3.634,-4523.256347656,-5.788772583,0
3.636,-4523.001953125,-4.304147243,0
3.638,-4505.268554688,10.444516182,0
3.640,-4506.604492188,7.084512711,0
3.642,-4504.066894531,7.483897686,0
3.644,-4499.078613281,9.700217247,0
3.646,-4513.380859375,-3.579060078,0
3.648,-4512.521484375,-2.115573645,0
3.650,-4507.579101563,2.198849678,0
3.652,-4519.498535156,-7.560419559,0
3.654,-4548.599121094,-28.513826370,0
3.656,-4572.099609375,-40.454948425,0
3.658,-4541.882812500,-7.962869644,0
3.660,-4499.731445313,26.590452194,0
3.662,-4504.998046875,16.585292816,0
3.664,-4521.164550781,0.325513005,0
3.666,-4523.619628906,-1.656337500,0
3.668,-4533.984375000,-9.349463463,0
3.670,-4536.945312500,-9.574692726,0
3.672,-4533.481933594,-4.753170967,0
3.674,-4526.955078125,1.379695773,0
3.676,-4523.224121094,3.974839687,0
3.678,-4521.101562500,4.742404461,0
3.680,-4519.231933594,5.142678738,0
3.682,-4533.178710938,-6.847656727,0
3.684,-4558.613281250,-25.108011246,0
3.686,-4570.046386719,-28.420658112,0
3.688,-4545.706542969,-3.173951864,0
3.690,-4526.802734375,12.234255791,0
3.692,-4537.902832031,0.882186174,0
3.694,-4537.605957031,0.916845739,0
3.696,-4535.008789063,2.733116388,0
3.698,-4533.549804688,3.260625124,0
3.700,-4536.253417969,0.433301836,0
3.702,-4555.919433594,-14.958667755,0
3.704,-4569.669921875,-22.329259872,0
3.706,-4566.922851563,-15.230237007,0
3.708,-4549.408203125,1.776558042,0
3.710,-4533.662597656,13.628408432,0
3.712,-4535.260742188,9.356533051,0
3.714,-4539.581054688,3.917140245,0
3.716,-4546.054199219,-1.987884521,0
3.718,-4550.126464844,-4.713424206,0
3.720,-4547.183593750,-1.377024055,0
3.722,-4539.407226563,4.976924419,0
3.724,-4540.919433594,2.694850683,0
3.726,-4554.420898438,-8.404818535,0
3.728,-4570.398925781,-18.964355469,0
3.730,-4566.531250000,-11.741698265,0
3.732,-4553.408203125,1.074480176,0
3.734,-4548.958007813,4.296863556,0
3.736,-4554.942871094,-1.312917590,0
3.738,-4566.150878906,-9.738571167,0
3.740,-4570.068847656,-10.621361732,0
3.742,-4577.294921875,-13.881157875,0
3.744,-4578.472656250,-11.712285995,0
3.746,-4583.033203125,-12.656462669,0
3.748,-4573.114746094,-2.129693985,0
3.750,-4556.712890625,11.100368500,0
3.752,-4566.978515625,0.649145782,0
3.754,-4576.698730469,-7.054826260,0
3.756,-4585.030273438,-11.967122078,0
3.758,-4586.766113281,-10.657928467,0
3.760,-4575.161132813,0.736649454,0
3.762,-4585.581542969,-7.531683922,0
3.764,-4595.868164063,-13.858633995,0
3.766,-4598.416992188,-12.761147499,0
3.768,-4599.982421875,-11.142779350,0
3.770,-4588.680664063,0.123727463,0
3.772,-4576.314453125,9.714494705,0
3.774,-4570.529785156,12.054527283,0
3.776,-4557.498046875,19.511419296,0
3.778,-4572.265136719,3.690007687,0
3.780,-4604.046875000,-21.848863602,0
3.782,-4617.547363281,-27.493705750,0
3.784,-4627.648925781,-29.240388870,0
3.786,-4626.081542969,-21.523210526,0
3.788,-4594.193359375,8.061730385,0
3.790,-4569.531250000,25.451522827,0
3.792,-4554.191894531,31.725656509,0
3.794,-4546.253906250,30.849164963,0
3.796,-4563.607910156,10.496287346,0
3.798,-4558.634277344,12.032030106,0
3.800,-4519.362792969,39.902137756,0
3.802,-4497.554199219,47.996513367,0
3.804,-4513.274902344,25.102989197,0
3.806,-4540.031250000,-1.285717130,0
3.808,-4565.053710938,-20.461858749,0
3.810,-4582.378906250,-29.389364243,0
3.812,-4575.203613281,-17.277523041,0
3.814,-4557.331054688,0.462985188,0
3.816,-4541.870605469,12.384573936,0
3.818,-4529.497070313,19.255949020,0
3.820,-4529.813476563,14.730569839,0
3.822,-4549.125000000,-3.562769651,0
3.824,-4565.490234375,-15.499417305,0
3.826,-4569.202148438,-14.942033768,0
3.828,-4573.098632813,-14.651931763,0
3.830,-4583.623046875,-19.581314087,0
3.832,-4587.935546875,-18.583629608,0
3.834,-4589.847656250,-15.941200256,0
3.836,-4593.736816406,-15.423186302,0
3.838,-4600.085449219,-16.933374405,0
3.840,-4605.035156250,-17.020160675,0
3.842,-4593.726562500,-4.442283154,0
3.844,-4578.345214844,8.508267403,0
3.846,-4595.948730469,-7.074313641,0
3.848,-4612.648437500,-18.490592957,0
3.850,-4601.529785156,-5.733655930,0
3.852,-4591.310546875,3.488950253,0
3.854,-4577.368652344,13.556845665,0
3.856,-4568.123535156,17.734642029,0
3.858,-4584.270019531,1.235568523,0
3.860,-4600.516601563,-11.675137520,0
3.862,-4603.505859375,-11.405640602,0
3.864,-4605.627441406,-10.521056175,0
3.866,-4598.925292969,-2.970230818,0
3.868,-4589.665039063,4.892064571,0
3.870,-4597.090820313,-1.970312119,0
3.872,-4603.357910156,-6.406942844,0
3.874,-4619.764160156,-17.743515015,0
3.876,-4619.679687500,-13.734458923,0
3.878,-4599.188476563,5.255258560,0
3.880,-4586.797363281,13.724735260,0
3.882,-4580.678710938,15.433327675,0
3.884,-4592.990234375,2.428019762,0
3.886,-4607.259277344,-9.209220886,0
3.888,-4630.308593750,-25.089780807,0
3.890,-4648.044921875,-33.308845520,0
3.892,-4655.967773438,-32.068794250,0
3.894,-4641.187011719,-13.445999146,0
3.896,-4603.214843750,19.075780869,0
3.898,-4593.169921875,22.649209976,0
3.900,-4601.698730469,10.982110023,0
3.902,-4612.501953125,0.139352620,0
3.904,-4629.838867188,-13.375940323,0
3.906,-4656.452148438,-31.102161407,0
3.908,-4698.054199219,-56.546897888,0
3.910,-4726.432617188,-66.052207947,0
3.912,-4730.926757813,-54.868698120,0
3.914,-4731.215332031,-42.899631500,0
3.916,-4732.042968750,-34.009506226,0
3.918,-4759.008789063,-47.424663544,0
3.920,-4812.371093750,-78.388702393,0
3.922,-4825.822265625,-71.430122375,0
3.924,-4823.004394531,-53.364540100,0
3.926,-4821.554687500,-40.377628326,0
3.928,-4754.051269531,21.097423553,0
3.930,-4610.966308594,127.695838928,0
3.932,-4401.151855469,262.504425049,0
3.934,-4141.733886719,405.934539795,0
3.936,-3875.936279297,522.451599121,0
3.938,-3560.962890625,651.322021484,0
3.940,-3164.771972656,814.721740723,0
3.942,-2796.544677734,920.059631348,0
3.944,-2592.982421875,873.916687012,0
3.946,-2521.969726563,734.935485840,0
3.948,-2498.569580078,589.809020996,0
3.950,-2636.427246094,351.513153076,0
3.952,-2940.648681641,36.781974792,0
3.954,-3206.965332031,-178.524703979,0
3.956,-3392.966064453,-283.516021729,0
3.958,-3555.485107422,-346.911712646,0
3.960,-3692.332763672,-376.252349854,0
3.962,-3841.834960938,-408.914947510,0
3.964,-4013.621582031,-451.651000977,0
3.966,-4163.588867188,-467.919219971,0
3.968,-4266.632812500,-444.076629639,0
3.970,-4333.803710938,-397.631683350,0
3.972,-4370.021972656,-337.434417725,0
3.974,-4416.926269531,-298.926513672,0
3.976,-4491.910644531,-290.815826416,0
3.978,-4544.955566406,-267.443664551,0
3.980,-4565.001464844,-223.600219727,0
3.982,-4552.008300781,-163.803344727,0
3.984,-4539.485351563,-117.661041260,0
3.986,-4554.607910156,-103.274566650,0
3.988,-4576.775390625,-97.564888000,0
3.990,-4598.254882813,-92.588768005,0
3.992,-4600.147460938,-73.484687805,0
3.994,-4592.673828125,-51.341266632,0
3.996,-4598.568359375,-44.516105652,0
3.998,-4608.045410156,-41.993980408,0
4.000,-4619.108886719,-41.266540527,0
4.002,-4632.843750000,-42.778404236,0
4.004,-4641.627441406,-40.103084564,0
4.006,-4645.473144531,-34.181907654,0
4.008,-4642.676269531,-24.410369873,0
4.010,-4635.472656250,-13.382834435,0
4.012,-4637.962402344,-12.345266342,0
4.014,-4663.479492188,-29.448049545,0
4.016,-4680.424316406,-36.082969666,0
4.018,-4665.239257813,-16.253627777,0
4.020,-4645.582519531,2.646955252,0
4.022,-4638.166992188,7.825943470,0
4.024,-4636.260253906,7.569956779,0
4.026,-4642.049316406,1.385165215,0
4.028,-4652.328613281,-6.917717934,0
4.030,-4635.636230469,7.602411747,0
4.032,-4621.383789063,16.998235703,0
4.034,-4615.870117188,17.508817673,0
4.036,-4633.668945313,-0.225380659,0
4.038,-4665.278320313,-24.760011673,0
4.040,-4670.927246094,-23.651399612,0
4.042,-4665.104492188,-13.866547585,0
4.044,-4654.766601563,-2.744267941,0
4.046,-4643.502929688,6.626152992,0
4.048,-4657.783203125,-5.953025818,0
4.050,-4649.696289063,1.659375668,0
4.052,-4618.086914063,25.875345230,0
4.054,-4614.264648438,23.097835541,0
4.056,-4632.946777344,3.434607744,0
4.058,-4644.031738281,-5.950149059,0
4.060,-4636.897460938,0.920799255,0
4.062,-4636.733398438,0.843826115,0
4.064,-4636.063964844,1.176798463,0
4.066,-4638.941406250,-1.322482824,0
4.068,-4647.400878906,-7.607949257,0
4.070,-4637.977050781,1.412004709,0
4.072,-4626.712402344,9.859639168,0
4.074,-4615.912597656,16.068235397,0
4.076,-4611.083496094,16.253164291,0
4.078,-4623.248535156,3.179584503,0
4.080,-4622.844726563,2.787041426,0
4.082,-4626.469726563,-0.651500106,0
4.084,-4653.870605469,-21.818235397,0
4.086,-4662.629394531,-23.781900406,0
4.088,-4640.652343750,-1.403813481,0
4.090,-4632.500000000,5.249004841,0
4.092,-4627.876953125,7.678061008,0
4.094,-4608.918457031,20.717027664,0
4.096,-4617.878906250,9.143715858,0
4.098,-4633.080566406,-4.711486340,0
4.100,-4630.014160156,-1.279672980,0
4.102,-4634.813476563,-4.727810860,0
4.104,-4654.108886719,-18.684446335,0
4.106,-4664.815917969,-22.860002518,0
4.108,-4650.365234375,-6.540484905,0
4.110,-4619.525878906,18.899141312,0
4.112,-4601.316894531,28.861375809,0
4.114,-4611.950195313,14.177219391,0
4.116,-4635.662597656,-7.416208267,0
4.118,-4642.284667969,-10.918414116,0
4.120,-4637.387207031,-4.682839394,0
4.122,-4638.077148438,-4.179065228,0
4.124,-4645.412109375,-8.955175400,0
4.126,-4634.813476563,1.278450370,0
4.128,-4613.135253906,17.854814529,0
4.130,-4601.545410156,22.901256561,0
4.132,-4610.923339844,10.517689705,0
4.134,-4624.685058594,-2.523051977,0
4.136,-4632.335449219,-7.912533760,0
4.138,-4637.711425781,-10.335294724,0
4.140,-4638.468261719,-8.626946449,0
4.142,-4631.932128906,-1.626320124,0
4.144,-4619.135742188,8.687852859,0
4.146,-4610.470214844,13.496876717,0
4.148,-4608.543457031,11.995838165,0
4.150,-4607.246582031,10.338561058,0
4.152,-4614.338867188,2.524900436,0
4.154,-4624.036132813,-5.578442097,0
4.156,-4611.939941406,5.069237709,0
4.158,-4604.197265625,9.964760780,0
4.160,-4612.339355469,1.417621732,0
4.162,-4609.767578125,3.102763653,0
4.164,-4614.219726563,-1.049561620,0
4.166,-4617.851074219,-3.640413046,0
4.168,-4603.510742188,8.321948051,0
4.170,-4613.256347656,-1.107387066,0
4.172,-4618.424804688,-4.880925655,0
4.174,-4592.438476563,16.415037155,0
4.176,-4578.141113281,23.886932373,0
4.178,-4575.712890625,20.467260361,0
4.180,-4570.586425781,19.905881882,0
4.182,-4556.349609375,26.555324554,0
4.184,-4540.482421875,32.994548798,0
4.186,-4538.649902344,27.087553024,0
4.188,-4540.271972656,19.806026459,0
4.190,-4540.388183594,15.314296722,0
4.192,-4545.438476563,7.983006001,0
4.194,-4535.711425781,13.774297714,0
4.196,-4521.398925781,21.845006943,0
4.198,-4533.917968750,7.253381252,0
4.200,-4543.743164063,-2.000313282,0
4.202,-4540.323730469,1.103898644,0
4.204,-4556.480957031,-11.708198547,0
4.206,-4581.621582031,-28.659830093,0
4.208,-4605.815917969,-41.108188629,0
4.210,-4620.519042969,-43.408203125,0
4.212,-4619.573730469,-33.026130676,0
4.214,-4618.521484375,-24.868295670,0
4.216,-4619.428222656,-20.047189713,0
4.218,-4630.420898438,-24.141498566,0
4.220,-4631.984863281,-19.993232727,0
4.222,-4614.832519531,-2.209330082,0
4.224,-4623.624023438,-8.555999756,0
4.226,-4659.926269531,-34.889522552,0
4.228,-4681.397949219,-43.835857391,0
4.230,-4682.276367188,-34.777256012,0
4.232,-4680.237792969,-25.463212967,0
4.234,-4681.712402344,-20.951135635,0
4.236,-4681.063964844,-15.791047096,0
4.238,-4684.332519531,-14.823773384,0
4.240,-4687.217773438,-13.773573875,0
4.242,-4693.034179688,-15.236285210,0
4.244,-4707.495605469,-23.097967148,0
4.246,-4690.492675781,-4.740784168,0
4.248,-4653.059082031,25.427623749,0
4.250,-4649.819335938,22.296470642,0
4.252,-4666.377929688,4.462651253,0
4.254,-4675.431152344,-3.570399761,0
4.256,-4695.756347656,-18.585002899,0
4.258,-4701.413085938,-18.854423523,0
4.260,-4680.637207031,1.494429111,0
4.262,-4676.593261719,4.307422638,0
4.264,-4684.445312500,-2.756794691,0
4.266,-4694.972656250,-10.332013130,0
4.268,-4700.977050781,-12.705904007,0
4.270,-4687.603027344,0.519658089,0
4.272,-4685.608398438,1.955494285,0
4.274,-4684.958007813,2.026919365,0
4.276,-4681.481445313,4.280076981,0
4.278,-4687.766601563,-1.559306264,0
4.280,-4679.600097656,5.138889790,0
4.282,-4676.291503906,6.570251942,0
4.284,-4677.166992188,4.429279804,0
4.286,-4663.950195313,13.724534988,0
4.288,-4669.226562500,6.570453167,0
4.290,-4678.187500000,-1.859272361,0
4.292,-4678.253417969,-1.497167945,0
4.294,-4695.892089844,-14.883456230,0
4.296,-4712.719726563,-24.663635254,0
4.298,-4707.898437500,-15.432680130,0
4.300,-4689.924316406,1.976404071,0
4.302,-4684.807617188,5.516987801,0
4.304,-4681.573242188,6.806406021,0
4.306,-4669.663574219,14.556963921,0
4.308,-4670.702148438,10.514170647,0
4.310,-4683.145019531,-1.500408411,0
4.312,-4691.495117188,-7.661234856,0
4.314,-4686.850097656,-2.346028090,0
4.316,-4681.589355469,2.266916037,0
4.318,-4686.353515625,-1.942254663,0
4.320,-4688.842285156,-3.446232319,0
4.322,-4689.140136719,-2.912024975,0
4.324,-4697.352539063,-8.652350426,0
4.326,-4692.058593750,-2.611966372,0
4.328,-4690.250488281,-0.624978423,0
4.330,-4691.591796875,-1.529434562,0
4.332,-4687.293457031,2.153715849,0
4.334,-4692.835937500,-2.635915995,0
4.336,-4712.571289063,-17.399494171,0
4.338,-4725.081542969,-23.262763977,0
4.340,-4700.333496094,1.155090690,0
4.342,-4678.475097656,17.899280548,0
4.344,-4689.374023438,5.444545746,0
4.346,-4694.663574219,0.120644495,0
4.348,-4690.922851563,3.002945900,0
4.350,-4705.605468750,-9.083932877,0
4.352,-4711.435546875,-11.599539757,0
4.354,-4687.923828125,9.264651299,0
4.356,-4669.738769531,21.349578857,0
4.358,-4675.083496094,12.448175430,0
4.360,-4697.969238281,-8.117950439,0
4.362,-4705.360351563,-12.062403679,0
4.364,-4700.208984375,-5.375271797,0
4.366,-4698.355468750,-2.739309788,0
4.368,-4691.630859375,3.099929810,0
4.370,-4671.698730469,17.913328171,0
4.372,-4678.696777344,8.489667892,0
4.374,-4699.098632813,-9.264852524,0
4.376,-4696.400878906,-5.107880592,0
4.378,-4699.600585938,-6.461179733,0
4.380,-4699.202148438,-4.715261936,0
4.382,-4697.310058594,-2.195948124,0
4.384,-4703.369628906,-6.420775890,0
4.386,-4707.421386719,-8.145414352,0
4.388,-4715.561523438,-12.666346550,0
4.390,-4720.857910156,-13.970654488,0
4.392,-4717.859375000,-8.533851624,0
4.394,-4713.817382813,-3.493674040,0
4.396,-4718.928222656,-6.692082405,0
4.398,-4716.495117188,-3.312678576,0
4.400,-4698.419921875,11.481679916,0
4.402,-4702.000000000,6.145657539,0
4.404,-4705.541992188,2.025067329,0
4.406,-4695.750976563,9.190246582,0
4.408,-4704.239746094,0.545455992,0
4.410,-4728.311035156,-18.297452927,0
4.412,-4736.083007813,-20.276195526,0
4.414,-4730.895507813,-11.735472679,0
4.416,-4735.483398438,-12.695774078,0
4.418,-4748.097167969,-19.684726715,0
4.420,-4740.773437500,-9.614082336,0
4.422,-4722.362304688,6.841945171,0
4.424,-4718.598144531,8.249135017,0
4.426,-4741.664550781,-11.524305344,0
4.428,-4761.031250000,-24.026012421,0
4.430,-4748.919433594,-9.266652107,0
4.432,-4730.815429688,6.873374462,0
4.434,-4713.044433594,19.167932510,0
4.436,-4686.729003906,35.375476837,0
4.438,-4669.356933594,41.025314331,0
4.440,-4667.976562500,32.981567383,0
4.442,-4666.322265625,26.938703537,0
4.444,-4678.445800781,11.522743225,0
4.446,-4700.534667969,-8.217778206,0
4.448,-4714.403320313,-17.178388596,0
4.450,-4703.312500000,-4.734718800,0
4.452,-4689.353027344,7.174681664,0
4.454,-4692.957031250,2.777408123,0
4.456,-4685.266601563,8.141273499,0
4.458,-4674.062011719,15.046706200,0
4.460,-4684.991210938,3.202624798,0
4.462,-4703.421875000,-11.843972206,0
4.464,-4714.019531250,-17.454515457,0
4.466,-4715.378417969,-14.632353783,0
4.468,-4707.924316406,-5.582887650,0
4.470,-4703.017089844,-0.525695503,0
4.472,-4702.392578125,0.076857895,0
4.474,-4714.087890625,-9.036409378,0
4.476,-4723.361816406,-14.240953445,0
4.478,-4718.506347656,-7.300027847,0
4.480,-4721.242187500,-7.805303097,0
4.482,-4738.318847656,-19.352481842,0
4.484,-4738.516601563,-15.205564499,0
4.486,-4743.281738281,-15.532501221,0
4.488,-4765.792968750,-29.589357376,0
4.490,-4764.350097656,-21.891489029,0
4.492,-4746.110839844,-2.840476990,0
4.494,-4728.331054688,11.619464874,0
4.496,-4724.837402344,11.754202843,0
4.498,-4729.318847656,5.656689167,0
4.500,-4739.788574219,-3.743598700,0
4.502,-4753.736816406,-13.759962082,0
4.504,-4746.914550781,-5.396071434,0
4.506,-4735.696777344,4.528138638,0
4.508,-4732.246093750,6.205630302,0
4.510,-4739.974121094,-1.184033275,0
4.512,-4755.029296875,-12.630568504,0
4.514,-4745.863281250,-2.694329262,0
4.516,-4736.129394531,5.474947453,0
4.518,-4745.238769531,-2.826822758,0
4.520,-4762.003417969,-15.237520218,0
4.522,-4767.463378906,-16.097843170,0
4.524,-4762.842773438,-8.926651955,0
4.526,-4749.835449219,3.173754215,0
4.528,-4738.924316406,10.955010414,0
4.530,-4743.145019531,5.237713337,0
4.532,-4742.140136719,4.855195522,0
4.534,-4751.345703125,-3.383651257,0
4.536,-4764.921386719,-13.190153122,0
4.538,-4753.550292969,-1.414985180,0
4.540,-4727.998535156,18.772787094,0
4.542,-4732.396972656,11.179984093,0
4.544,-4753.127929688,-7.428609371,0
4.546,-4782.392089844,-28.538198471,0
4.548,-4812.346191406,-45.493392944,0
4.550,-4812.983398438,-35.878898621,0
4.552,-4831.451171875,-42.269100189,0
4.554,-4876.517578125,-67.926864624,0
4.556,-4897.495605469,-69.147483826,0
4.558,-4886.065917969,-44.890735626,0
4.560,-4862.598632813,-16.662742615,0
4.562,-4859.298339844,-10.392882347,0
4.564,-4891.547851563,-33.165664673,0
4.566,-4921.383300781,-49.000339508,0
4.568,-4940.596679688,-53.054416656,0
4.570,-4940.743164063,-41.378116608,0
4.572,-4864.562500000,27.068452835,0
4.574,-4733.490722656,122.996444702,0
4.576,-4551.829589844,236.952682495,0
4.578,-4291.927734375,386.437316895,0
4.580,-3994.037841797,532.247802734,0
4.582,-3672.329345703,664.179565430,0
4.584,-3300.900634766,805.462707520,0
4.586,-2969.602294922,884.135986328,0
4.588,-2799.716552734,819.783935547,0
4.590,-2726.248291016,694.742736816,0
4.592,-2693.866699219,565.533813477,0
4.594,-2826.211669922,336.920288086,0
4.596,-3126.472167969,28.512739182,0
4.598,-3392.720458984,-184.902938843,0
4.600,-3557.446777344,-271.930450439,0
4.602,-3695.865966797,-319.156555176,0
4.604,-3844.645996094,-363.946075439,0
4.606,-4012.800292969,-413.850494385,0
4.608,-4160.383300781,-436.664947510,0
4.610,-4268.434570313,-423.662628174,0
4.612,-4353.805175781,-395.909606934,0
4.614,-4439.423339844,-374.516510010,0
4.616,-4519.774414063,-353.781555176,0
4.618,-4589.106933594,-329.084350586,0
4.620,-4632.474609375,-289.681182861,0
4.622,-4655.446777344,-243.171737671,0
4.624,-4659.937011719,-192.623138428,0
4.626,-4647.962890625,-140.503082275,0
4.628,-4654.887207031,-114.664253235,0
4.630,-4674.240234375,-104.234214783,0
4.632,-4687.297851563,-91.225784302,0
4.634,-4693.097656250,-75.463417053,0
4.636,-4699.476074219,-63.654064178,0
4.638,-4713.103515625,-60.107143402,0
4.640,-4720.710449219,-52.665737152,0
4.642,-4727.143554688,-45.965229034,0
4.644,-4747.233886719,-51.375911713,0
4.646,-4750.387695313,-42.411411285,0
4.648,-4746.973632813,-30.330888748,0
4.650,-4752.520019531,-27.904184341,0
4.652,-4747.131347656,-17.511745453,0
4.654,-4748.789550781,-14.909626007,0
4.656,-4746.751464844,-10.011257172,0
4.658,-4740.236816406,-2.719410658,0
4.660,-4757.377929688,-15.447154999,0
4.662,-4745.972167969,-3.143180370,0
4.664,-4727.264160156,12.106044769,0
4.666,-4737.818847656,1.206273675,0
4.668,-4739.030761719,-0.004212482,0
4.670,-4743.749023438,-3.672982693,0
4.672,-4754.622558594,-11.313923836,0
4.674,-4754.005371094,-8.319646835,0
4.676,-4750.833007813,-4.003307343,0
4.678,-4745.098144531,1.346862555,0
4.680,-4743.123046875,2.583859921,0
4.682,-4740.718750000,3.879300117,0
4.684,-4747.442871094,-2.212350130,0
4.686,-4751.136230469,-4.593405247,0
4.688,-4739.757812500,5.277345657,0
4.690,-4735.104980469,7.723117352,0
4.692,-4739.463867188,2.616654634,0
4.694,-4740.725097656,1.054423094,0
4.696,-4738.239257813,2.753188372,0
4.698,-4744.561035156,-2.775339127,0
4.700,-4747.042480469,-4.088696003,0
4.702,-4736.951171875,4.668711185,0
4.704,-4731.074707031,8.201902390,0
4.706,-4728.237304688,8.585681915,0
4.708,-4741.240234375,-3.435355425,0
4.710,-4764.800292969,-20.996164322,0
4.712,-4766.173339844,-17.398149490,0
4.714,-4743.395996094,4.183868408,0
4.716,-4727.196777344,15.853134155,0
4.718,-4721.802246094,16.525800705,0
4.720,-4733.726562500,3.578884602,0
4.722,-4742.239257813,-3.837347984,0
4.724,-4742.499023438,-3.186441183,0
4.726,-4744.327636719,-3.900799751,0
4.728,-4736.796386719,2.823615551,0
4.730,-4729.149414063,8.143859863,0
4.732,-4739.788085938,-1.940599203,0
4.734,-4743.256347656,-4.206734657,0
4.736,-4725.489257813,10.546872139,0
4.738,-4711.678222656,18.944782257,0
4.740,-4717.976562500,9.836025238,0
4.742,-4722.245117188,4.330232143,0
4.744,-4718.990722656,5.899116993,0
4.746,-4721.680175781,2.496478558,0
4.748,-4721.727050781,1.904920697,0
4.750,-4724.814941406,-0.920096576,0
4.752,-4718.567382813,4.143683910,0
4.754,-4699.906738281,17.736349106,0
4.756,-4706.486328125,8.677397728,0
4.758,-4711.742675781,2.660697460,0
4.760,-4705.549316406,6.886418819,0
4.762,-4711.311523438,0.874494731,0
4.764,-4717.750488281,-4.327766895,0
4.766,-4731.201660156,-13.828122139,0
4.768,-4733.800781250,-12.776585579,0
4.770,-4722.437500000,-1.099163651,0
4.772,-4731.371093750,-7.802916527,0
4.774,-4743.328613281,-15.369314194,0
4.776,-4739.767089844,-9.183522224,0
4.778,-4722.005371094,6.671772003,0
4.780,-4696.285156250,25.193292618,0
4.782,-4701.980468750,15.165240288,0
4.784,-4712.781250000,3.394475460,0
4.786,-4716.167968750,0.005762983,0
4.788,-4725.860839844,-7.534155369,0
4.790,-4714.172851563,3.230572939,0
4.792,-4705.814453125,9.013565063,0
4.794,-4710.738769531,3.180486202,0
4.796,-4705.326171875,6.683603287,0
4.798,-4706.495117188,4.289068222,0
4.800,-4721.353515625,-8.220602989,0
4.802,-4719.716796875,-5.120739937,0
4.804,-4710.825195313,2.932833433,0
4.806,-4689.208496094,19.093946457,0
4.808,-4663.123535156,35.138843536,0
4.810,-4661.470703125,28.615226746,0
4.812,-4678.123535156,9.303795815,0
4.814,-4699.195312500,-9.152475357,0
4.816,-4701.564941406,-8.961783409,0
4.818,-4694.835449219,-1.736111760,0
4.820,-4684.202636719,6.919577122,0
4.822,-4662.187988281,22.504266739,0
4.824,-4635.500976563,38.259273529,0
4.826,-4619.521972656,42.184810638,0
4.828,-4619.287109375,32.992637634,0
4.830,-4638.656250000,10.596055984,0
4.832,-4663.068359375,-10.745736122,0
4.834,-4665.285156250,-10.081862450,0
4.836,-4657.526367188,-1.806816101,0
4.838,-4650.004394531,4.445003986,0
4.840,-4641.807128906,9.832701683,0
4.842,-4636.295410156,11.934582710,0
4.844,-4634.742187500,10.490170479,0
4.846,-4643.173828125,1.601157188,0
4.848,-4662.019042969,-13.411868095,0
4.850,-4672.215820313,-18.361938477,0
4.852,-4688.104003906,-26.638923645,0
4.854,-4703.483398438,-32.680389404,0
4.856,-4698.978027344,-21.913406372,0
4.858,-4699.834472656,-17.709726334,0
4.860,-4711.527832031,-22.868974686,0
4.862,-4712.968750000,-18.907176971,0
4.864,-4707.708007813,-10.614077568,0
4.866,-4701.045410156,-3.073337793,0
4.868,-4698.116210938,-0.111879587,0
4.870,-4716.028808594,-14.018943787,0
4.872,-4730.302734375,-22.005344391,0
4.874,-4755.208984375,-36.486385345,0
4.876,-4791.890625000,-56.907489777,0
4.878,-4804.508300781,-54.074466705,0
4.880,-4784.952636719,-26.847690582,0
4.882,-4761.312988281,-2.494943619,0
4.884,-4760.202636719,-1.077134132,0
4.886,-4768.014160156,-6.913098812,0
4.888,-4774.397949219,-10.341976166,0
4.890,-4776.700195313,-9.834308624,0
4.892,-4770.617675781,-2.918084383,0
4.894,-4773.743164063,-4.700391769,0
4.896,-4782.280761719,-10.296034813,0
4.898,-4780.712402344,-6.788278103,0
4.900,-4769.685058594,3.297310114,0
4.902,-4761.618652344,8.838249207,0
4.904,-4761.727050781,6.789520741,0
4.906,-4766.594726563,1.495008588,0
4.908,-4767.380371094,0.551517189,0
4.910,-4757.846191406,7.844624043,0
4.912,-4762.675781250,2.344819069,0
4.914,-4762.739746094,1.774092913,0
4.916,-4744.435546875,15.616144180,0
4.918,-4750.037597656,7.788524628,0
4.920,-4758.359375000,-0.414707482,0
4.922,-4751.556152344,4.968967915,0
4.924,-4742.229492188,11.118586540,0
4.926,-4743.026367188,8.027909279,0
4.928,-4764.596191406,-10.532465935,0
4.930,-4781.895996094,-21.646993637,0
4.932,-4769.912109375,-7.515738964,0
4.934,-4759.337402344,2.379246235,0
4.936,-4756.014160156,4.435282707,0
4.938,-4742.648925781,13.844584465,0
4.940,-4741.414550781,11.728014946,0
4.942,-4764.060546875,-8.491802216,0
4.944,-4786.795410156,-24.287019730,0
4.946,-4798.050292969,-27.643583298,0
4.948,-4783.479003906,-10.167190552,0
4.950,-4764.014160156,7.231482983,0
4.952,-4764.275878906,5.421063900,0
4.954,-4756.100585938,10.574534416,0
4.956,-4752.248535156,11.220679283,0
4.958,-4764.059570313,-0.459167540,0
4.960,-4749.539550781,10.935895920,0
4.962,-4740.170898438,15.792212486,0
4.964,-4758.734863281,-2.155467510,0
4.966,-4768.676757813,-9.409104347,0
4.968,-4768.484375000,-7.168334484,0
4.970,-4771.088378906,-7.600630283,0
4.972,-4768.995117188,-4.283623695,0
4.974,-4763.892089844,0.637468815,0
4.976,-4756.845214844,5.976743698,0
4.978,-4751.392578125,8.889282227,0
4.980,-4753.148925781,5.547633648,0
4.982,-4762.930664063,-3.293088675,0
4.984,-4762.241699219,-2.025340319,0
4.986,-4765.748046875,-4.302393436,0
4.988,-4766.822753906,-4.182014942,0
4.990,-4749.031738281,10.584460258,0
4.992,-4734.747558594,19.341876984,0
4.994,-4745.506347656,6.676010609,0
4.996,-4758.883789063,-5.212413311,0
4.998,-4760.062988281,-4.971152782,0
5.000,-4766.083496094,-8.548873901,0
5.002,-4770.250976563,-9.890429497,0
5.004,-4755.311035156,3.927223206,0
5.006,-4732.150390625,21.068347931,0
5.008,-4730.195312500,17.906839371,0
5.010,-4750.156250000,-1.597682834,0
5.012,-4766.173828125,-13.700589180,0
5.014,-4774.296386719,-16.973367691,0
5.016,-4775.315429688,-13.994049072,0
5.018,-4778.423339844,-13.301267624,0
5.020,-4790.955078125,-20.092100143,0
5.022,-4792.975585938,-17.198255539,0
5.024,-4780.778808594,-3.890238285,0
5.026,-4771.727050781,4.014692783,0
5.028,-4760.541503906,11.822238922,0
5.030,-4753.959960938,14.313633919,0
5.032,-4753.885742188,11.190412521,0
5.034,-4755.570312500,7.393581390,0
5.036,-4756.882324219,4.729809284,0
5.038,-4763.079101563,-1.140937686,0
5.040,-4779.494140625,-13.654350281,0
5.042,-4794.205566406,-22.062011719,0
5.044,-4785.168457031,-10.130385399,0
5.046,-4765.640625000,7.309055328,0
5.048,-4773.563964844,-0.477599412,0
5.050,-4778.763671875,-4.415829659,0
5.052,-4764.658203125,7.536499023,0
5.054,-4761.201171875,8.550292015,0
5.056,-4777.586425781,-6.093989849,0
5.058,-4795.276855469,-18.498655319,0
5.060,-4799.545410156,-17.707618713,0
5.062,-4802.576660156,-16.129741669,0
5.064,-4787.730468750,-0.998356044,0
5.066,-4776.055664063,8.303829193,0
5.068,-4763.955078125,15.869758606,0
5.070,-4742.161621094,29.293106079,0
5.072,-4744.135253906,21.248212814,0
5.074,-4767.272460938,-1.469180822,0
5.076,-4784.829101563,-14.797746658,0
5.078,-4793.927734375,-18.585863113,0
5.080,-4800.538085938,-19.596681595,0
5.082,-4804.554199219,-18.365285873,0
5.084,-4796.695800781,-8.171715736,0
5.086,-4792.788574219,-3.316730022,0
5.088,-4800.333496094,-8.447893143,0
5.090,-4794.421875000,-1.972715974,0
5.092,-4778.035156250,11.210606575,0
5.094,-4785.141601563,3.192131996,0
5.096,-4800.986816406,-9.840955734,0
5.098,-4795.438964844,-3.339044094,0
5.100,-4781.136230469,8.527095795,0
5.102,-4779.773437500,7.692172527,0
5.104,-4779.566894531,6.143317223,0
5.106,-4770.117187500,12.127723694,0
5.108,-4765.199707031,13.256995201,0
5.110,-4752.472656250,20.209529877,0
5.112,-4737.125000000,27.655550003,0
5.114,-4732.539550781,25.075819016,0
5.116,-4729.565429688,21.816410065,0
5.118,-4744.001464844,5.740073204,0
5.120,-4758.663085938,-6.938705444,0
5.122,-4750.032714844,1.315700412,0
5.124,-4748.497558594,2.217346430,0
5.126,-4751.624023438,-0.707133651,0
5.128,-4735.930664063,11.655736923,0
5.130,-4727.698730469,15.467938423,0
5.132,-4725.004882813,14.125760078,0
5.134,-4741.654785156,-1.963203073,0
5.136,-4774.910156250,-27.391832352,0
5.138,-4771.615234375,-18.741907120,0
5.140,-4745.138183594,6.016093254,0
5.142,-4743.381347656,6.045526028,0
5.144,-4753.598632813,-3.244688988,0
5.146,-4762.476562500,-9.428652763,0
5.148,-4774.853515625,-16.959472656,0
5.150,-4779.542968750,-16.837865829,0
5.152,-4782.833007813,-15.655032158,0
5.154,-4799.289550781,-24.975049973,0
5.156,-4797.641113281,-18.142812729,0
5.158,-4785.691406250,-4.816721916,0
5.160,-4780.356445313,0.402812093,0
5.162,-4787.641113281,-5.352467060,0
5.164,-4782.908203125,-0.481608778,0
5.166,-4769.584472656,9.988272667,0
5.168,-4769.983398438,7.458162308,0
5.170,-4781.768066406,-3.365030527,0
5.172,-4784.348144531,-4.623814583,0
5.174,-4778.399414063,1.030467749,0
5.176,-4772.711914063,5.224764347,0
5.178,-4771.687988281,4.860133648,0
5.180,-4779.186523438,-2.052139044,0
5.182,-4783.645996094,-5.064593315,0
5.184,-4787.038085938,-6.577154636,0
5.186,-4785.966308594,-4.282067299,0
5.188,-4788.887207031,-5.602276802,0
5.190,-4792.407226563,-7.094804287,0
5.192,-4777.217285156,6.295985222,0
5.194,-4771.491699219,9.350150108,0
5.196,-4774.713378906,4.766559601,0
5.198,-4779.304687500,0.136135221,0
5.200,-4783.614257813,-3.245985031,0
5.202,-4776.477050781,3.026445627,0
5.204,-4779.107421875,0.308164209,0
5.206,-4803.767089844,-18.939889908,0
5.208,-4806.218750000,-16.637546539,0
5.210,-4789.176757813,0.314582765,0
5.212,-4770.131347656,15.057613373,0
5.214,-4762.556152344,17.603055954,0
5.216,-4764.096191406,12.493331909,0
5.218,-4760.141601563,12.792722702,0
5.220,-4770.560546875,1.846246123,0
5.222,-4805.043945313,-25.384321213,0
5.224,-4851.265625000,-55.692810059,0
5.226,-4894.885742188,-77.242454529,0
5.228,-4925.776855469,-84.102828979,0
5.230,-4929.616699219,-68.398948669,0
5.232,-4914.412597656,-41.373054504,0
5.234,-4908.971679688,-27.946943283,0
5.236,-4924.358398438,-33.703403473,0
5.238,-4928.375488281,-29.338001251,0
5.240,-4932.945312500,-26.372337341,0
5.242,-4951.184570313,-34.697334290,0
5.244,-4906.356445313,7.879175663,0
5.246,-4790.746582031,96.045974731,0
5.248,-4640.226074219,191.771530151,0
5.250,-4413.871093750,325.205108643,0
5.252,-4144.004394531,462.827606201,0
5.254,-3848.482421875,589.819946289,0
5.256,-3496.914794922,732.180725098,0
5.258,-3137.943115234,848.663085938,0
5.260,-2889.047363281,853.645690918,0
5.262,-2781.144531250,747.861389160,0
5.264,-2727.517089844,623.372253418,0
5.266,-2792.993164063,433.913513184,0
5.268,-3066.008056641,125.141716003,0
5.270,-3361.150146484,-132.220794678,0
5.272,-3545.758300781,-246.419311523,0
5.274,-3683.732421875,-298.968811035,0
5.276,-3820.060058594,-338.559509277,0
5.278,-3968.681884766,-378.913879395,0
5.280,-4133.718750000,-423.067321777,0
5.282,-4285.126464844,-446.808044434,0
5.284,-4385.197753906,-425.344940186,0
5.286,-4467.924804688,-395.162078857,0
5.288,-4539.722167969,-363.186126709,0
5.290,-4569.785644531,-305.856750488,0
5.292,-4605.833984375,-265.922821045,0
5.294,-4653.305175781,-243.747711182,0
5.296,-4669.011718750,-201.795104980,0
5.298,-4679.772949219,-165.319229126,0
5.300,-4705.347167969,-148.470993042,0
5.302,-4724.578125000,-130.432907104,0
5.304,-4735.765625000,-110.147735596,0
5.306,-4728.968261719,-80.382629395,0
5.308,-4731.437500000,-64.439643860,0
5.310,-4744.741699219,-60.466491699,0
5.312,-4755.598144531,-55.472648621,0
5.314,-4766.339843750,-51.499542236,0
5.316,-4760.125488281,-35.221366882,0
5.318,-4759.092285156,-26.590587616,0
5.320,-4765.510253906,-25.672966003,0
5.322,-4764.686523438,-19.326747894,0
5.324,-4763.935058594,-14.447229385,0
5.326,-4756.419921875,-5.391633034,0
5.328,-4754.759277344,-2.901973486,0
5.330,-4764.384765625,-9.743494034,0
5.332,-4768.560058594,-10.825291634,0
5.334,-4777.918945313,-15.698854446,0
5.336,-4789.126953125,-20.927165985,0
5.338,-4781.415527344,-10.278717041,0
5.340,-4768.722656250,1.877614737,0
5.342,-4768.792480469,1.406047225,0
5.344,-4771.181152344,-0.764424801,0
5.346,-4766.284179688,3.214474201,0
5.348,-4757.224609375,9.546235085,0
5.350,-4749.739257813,13.246726036,0
5.352,-4749.519042969,10.473989487,0
5.354,-4753.751953125,4.854254246,0
5.356,-4763.246582031,-3.609151363,0
5.358,-4778.610839844,-14.756928444,0
5.360,-4795.453613281,-24.577142715,0
5.362,-4791.456054688,-16.006341934,0
5.364,-4770.462890625,3.878669739,0
5.366,-4766.990722656,5.717350483,0
5.368,-4776.001464844,-2.561498880,0
5.370,-4781.047851563,-5.917331696,0
5.372,-4774.865234375,0.206467763,0
5.374,-4760.439941406,11.380033493,0
5.376,-4760.156250000,9.071573257,0
5.378,-4763.213867188,4.677577019,0
5.380,-4762.482421875,4.206919670,0
5.382,-4767.022460938,-0.259022355,0
5.384,-4773.102539063,-4.930435181,0
5.386,-4766.476074219,1.319090605,0
5.388,-4752.036132813,12.256827354,0
5.390,-4753.951660156,8.043248177,0
5.392,-4759.103515625,2.248656273,0
5.394,-4757.732910156,2.815044165,0
5.396,-4745.875000000,11.412160873,0
5.398,-4740.486816406,13.066957474,0
5.400,-4753.958984375,-0.315222710,0
5.402,-4763.820312500,-7.915284634,0
5.404,-4763.803222656,-6.142629623,0
5.406,-4756.539550781,0.871761918,0
5.408,-4741.407226563,12.447298050,0
5.410,-4733.911621094,15.511253357,0
5.412,-4739.500488281,7.717272282,0
5.414,-4737.242675781,7.758260727,0
5.416,-4725.612792969,15.079442978,0
5.418,-4741.260253906,-0.441837698,0
5.420,-4761.883789063,-16.384111404,0
5.422,-4759.955566406,-11.243329048,0
5.424,-4761.579589844,-10.007599831,0
5.426,-4771.774902344,-15.713148117,0
5.428,-4754.815429688,0.969446242,0
5.430,-4731.660156250,18.763158798,0
5.432,-4735.584472656,11.541393280,0
5.434,-4751.268066406,-3.221720934,0
5.436,-4768.547851563,-15.945631981,0
5.438,-4764.153808594,-8.984499931,0
5.440,-4753.456542969,1.332457304,0
5.442,-4754.744140625,0.034641702,0
5.444,-4751.641113281,2.440476418,0
5.446,-4750.976562500,2.414923191,0
5.448,-4754.879882813,-1.157529116,0
5.450,-4742.429687500,8.782931328,0
5.452,-4745.189941406,4.684356213,0
5.454,-4763.732910156,-10.778759956,0
5.456,-4766.815429688,-10.780885696,0
5.458,-4759.661621094,-2.820873260,0
5.460,-4752.373046875,3.474623919,0
5.462,-4747.185546875,6.737334728,0
5.464,-4739.720703125,11.045783043,0
5.466,-4744.929199219,4.540048599,0
5.468,-4759.895507813,-8.109130859,0
5.470,-4768.729492188,-13.177909851,0
5.472,-4741.765136719,10.722715378,0
5.474,-4723.249511719,22.740762711,0
5.476,-4732.218750000,10.710889816,0
5.478,-4739.052246094,3.015862465,0
5.480,-4740.663085938,1.092822790,0
5.482,-4742.749023438,-0.772599936,0
5.484,-4747.127441406,-4.006081104,0
5.486,-4745.814453125,-2.094907761,0
5.488,-4740.481933594,2.518079281,0
5.490,-4727.857910156,11.777077675,0
5.492,-4708.252441406,24.408332825,0
5.494,-4707.480957031,19.584062576,0
5.496,-4710.011230469,13.264204979,0
5.498,-4701.484863281,16.947719574,0
5.500,-4697.382812500,16.371892929,0
5.502,-4690.716308594,17.918500900,0
5.504,-4681.470214844,21.127695084,0
5.506,-4674.721191406,21.681621552,0
5.508,-4670.095703125,20.460742950,0
5.510,-4659.168457031,24.412670135,0
5.512,-4659.332031250,18.860219955,0
5.514,-4667.872070313,8.026847839,0
5.516,-4667.426269531,6.589563847,0
5.518,-4672.353515625,1.292971373,0
5.520,-4678.331542969,-3.644009352,0
5.522,-4679.380371094,-3.649800301,0
5.524,-4701.232421875,-19.834421158,0
5.526,-4730.024414063,-37.820087433,0
5.528,-4751.712890625,-46.284114838,0
5.530,-4763.045410156,-44.812267303,0
5.532,-4747.020019531,-22.389539719,0
5.534,-4744.153808594,-15.184531212,0
5.536,-4763.396484375,-26.776151657,0
5.538,-4763.722656250,-21.079471588,0
5.540,-4760.840332031,-14.153163910,0
5.542,-4766.287109375,-15.244176865,0
5.544,-4768.904785156,-13.892410278,0
5.546,-4769.081542969,-10.942340851,0
5.548,-4788.521972656,-23.630926132,0
5.550,-4788.104492188,-18.054491043,0
5.552,-4770.696777344,-0.503218472,0
5.554,-4784.242187500,-10.926693916,0
5.556,-4794.489746094,-16.468339920,0
5.558,-4798.218261719,-15.708552361,0
5.560,-4790.361816406,-6.107031345,0
5.562,-4783.754882813,0.388738871,0
5.564,-4792.768066406,-6.707950592,0
5.566,-4794.967285156,-6.927779675,0
5.568,-4793.381347656,-4.154512882,0
5.570,-4787.203613281,1.573512316,0
5.572,-4780.777832031,6.221513271,0
5.574,-4787.700683594,-0.545317173,0
5.576,-4797.145019531,-7.769894600,0
5.578,-4804.749023438,-11.957245827,0
5.580,-4793.299316406,-0.394836068,0
5.582,-4775.788574219,13.312529564,0
5.584,-4776.012207031,10.179868698,0
5.586,-4784.059082031,1.658935189,0
5.588,-4801.861816406,-12.555838585,0
5.590,-4818.392089844,-22.622430801,0
5.592,-4821.398437500,-19.933120728,0
5.594,-4819.070800781,-13.693066597,0
5.596,-4812.718261719,-5.709139347,0
5.598,-4807.418945313,-0.318685561,0
5.600,-4798.588867188,6.619595051,0
5.602,-4796.045410156,7.126711369,0
5.604,-4800.934082031,1.740956426,0
5.606,-4801.122070313,1.207926393,0
5.608,-4794.042968750,6.445154667,0
5.610,-4785.555175781,11.614502907,0
5.612,-4787.237792969,7.724526882,0
5.614,-4796.278320313,-1.023641348,0
5.616,-4811.480957031,-12.620104790,0
5.618,-4826.277832031,-21.324171066,0
5.620,-4813.326171875,-6.511680603,0
5.622,-4806.078613281,0.572219491,0
5.624,-4816.593261719,-7.732731819,0
5.626,-4824.121093750,-11.869422913,0
5.628,-4828.841308594,-12.902891159,0
5.630,-4825.149414063,-7.164017200,0
5.632,-4818.619140625,-0.492745906,0
5.634,-4803.671386719,11.242538452,0
5.636,-4795.986816406,14.721186638,0
5.638,-4803.914550781,5.283699512,0
5.640,-4805.558593750,2.830808878,0
5.642,-4797.768554688,8.260481834,0
5.644,-4788.190917969,13.873776436,0
5.646,-4798.252441406,2.964916468,0
5.648,-4808.771972656,-5.875376701,0
5.650,-4809.567871094,-5.188764572,0
5.652,-4817.581054688,-10.268261909,0
5.654,-4819.350097656,-9.362152100,0
5.656,-4807.512207031,1.925572395,0
5.658,-4807.285156250,1.674083114,0
5.660,-4813.569335938,-3.585365057,0
5.662,-4803.986328125,4.664843082,0
5.664,-4810.974609375,-1.807114601,0
5.666,-4825.525878906,-12.723118782,0
5.668,-4817.266601563,-3.471897364,0
5.670,-4812.490234375,1.014609456,0
5.672,-4830.977050781,-13.589139938,0
5.674,-4823.006835938,-4.370239258,0
5.676,-4796.407714844,17.288671494,0
5.678,-4800.195800781,10.500591278,0
5.680,-4814.450683594,-2.920285702,0
5.682,-4835.202636719,-18.411533356,0
5.684,-4852.003417969,-27.386817932,0
5.686,-4836.128906250,-8.953739166,0
5.688,-4822.267578125,3.816609383,0
5.690,-4840.447753906,-11.171432495,0
5.692,-4842.883789063,-10.583390236,0
5.694,-4827.797363281,3.502349138,0
5.696,-4827.407226563,3.027624607,0
5.698,-4826.120605469,3.355437756,0
5.700,-4812.131347656,13.489988327,0
5.702,-4809.517578125,12.524834633,0
5.704,-4818.507812500,2.749082088,0
5.706,-4822.374511719,-0.868963420,0
5.708,-4817.693847656,2.964536428,0
5.710,-4823.278808594,-2.038124561,0
5.712,-4829.759765625,-6.625694752,0
5.714,-4837.166015625,-10.913745880,0
5.716,-4856.764160156,-23.730995178,0
5.718,-4856.067871094,-17.915941238,0
5.720,-4836.234863281,1.491052628,0
5.722,-4811.066406250,20.735038757,0
5.724,-4805.076171875,20.786006927,0
5.726,-4829.485351563,-2.817935705,0
5.728,-4852.601074219,-20.170547485,0
5.730,-4861.906738281,-22.925470352,0
5.732,-4855.487792969,-12.838171005,0
5.734,-4848.191406250,-4.310416222,0
5.736,-4838.745117188,3.994802237,0
5.738,-4809.133789063,26.137557983,0
5.740,-4802.702636719,25.331058502,0
5.742,-4828.983398438,-0.738792121,0
5.744,-4857.447753906,-22.713142395,0
5.746,-4876.255371094,-32.293460846,0
5.748,-4869.758300781,-20.063768387,0
5.750,-4855.149902344,-4.243143082,0
5.752,-4856.271484375,-4.172218800,0
5.754,-4850.257812500,1.431931138,0
5.756,-4839.735839844,9.297586441,0
5.758,-4837.816894531,8.723803520,0
5.760,-4841.800781250,3.686521053,0
5.762,-4853.088378906,-5.912024021,0
5.764,-4863.331054688,-12.564444542,0
5.766,-4863.396484375,-9.823251724,0
5.768,-4865.755371094,-9.474572182,0
5.770,-4858.100585938,-1.415685415,0
5.772,-4841.429687500,11.865014076,0
5.774,-4839.094238281,11.044797897,0
5.776,-4845.890136719,3.304634094,0
5.778,-4847.625976563,1.220298886,0
5.780,-4853.106445313,-3.313449621,0
5.782,-4853.849121094,-3.154819727,0
5.784,-4858.268066406,-5.890574455,0
5.786,-4869.622558594,-13.412511826,0
5.788,-4870.044921875,-10.760311127,0
5.790,-4862.592285156,-2.572776556,0
5.792,-4855.738769531,3.329502583,0
5.794,-4851.480957031,5.901135921,0
5.796,-4845.637695313,9.134414673,0
5.798,-4836.016601563,14.587187767,0
5.800,-4840.004882813,8.243824959,0
5.802,-4851.976074219,-2.899039030,0
5.804,-4863.095214844,-10.903009415,0
5.806,-4875.671875000,-18.261800766,0
5.808,-4873.646972656,-12.628407478,0
5.810,-4877.418457031,-12.755573273,0
5.812,-4881.554687500,-13.137804985,0
5.814,-4872.645996094,-3.289221287,0
5.816,-4863.757324219,4.355054855,0
5.818,-4868.183105469,-0.054764692,0
5.820,-4879.467285156,-8.819202423,0
5.822,-4876.691406250,-4.700420380,0
5.824,-4873.315429688,-1.029920340,0
5.826,-4868.926757813,2.612033129,0
5.828,-4848.528320313,17.897037506,0
5.830,-4838.967285156,21.355768204,0
5.832,-4861.681640625,-1.056582689,0
5.834,-4890.355957031,-23.123708725,0
5.836,-4910.465332031,-33.625400543,0
5.838,-4898.488281250,-16.837285995,0
5.840,-4859.686523438,17.083505630,0
5.842,-4848.521484375,21.970529556,0
5.844,-4863.337402344,5.564586639,0
5.846,-4874.438476563,-4.305841923,0
5.848,-4881.708007813,-9.003188133,0
5.850,-4890.409179688,-13.769948959,0
5.852,-4882.875488281,-4.850270748,0
5.854,-4875.993164063,1.580394149,0
5.856,-4877.573730469,0.000148508,0
5.858,-4870.229003906,5.712638855,0
5.860,-4861.647460938,11.117255211,0
5.862,-4855.760253906,13.225617409,0
5.864,-4840.213378906,22.378276825,0
5.866,-4827.257812500,27.481678009,0
5.868,-4823.551757813,24.256893158,0
5.870,-4827.583984375,15.729981422,0
5.872,-4837.800781250,4.287967682,0
5.874,-4837.624023438,3.472359896,0
5.876,-4836.209960938,3.800521374,0
5.878,-4829.563964844,8.125084877,0
5.880,-4812.387207031,19.678874969,0
5.882,-4814.948242188,13.313654900,0
5.884,-4832.887207031,-3.597133398,0
5.886,-4849.681640625,-15.860080719,0
5.888,-4853.125976563,-15.014332771,0
5.890,-4855.917968750,-13.849257469,0
5.892,-4850.133300781,-6.272264004,0
5.894,-4838.716308594,4.001491070,0
5.896,-4836.305175781,4.987555981,0
5.898,-4840.188476563,0.858791947,0
5.900,-4856.327148438,-11.884110451,0
5.902,-4882.092285156,-29.282367706,0
5.904,-4897.077636719,-34.430145264,0
5.906,-4900.060058594,-29.098171234,0
5.908,-4881.829589844,-8.452859879,0
5.910,-4857.487304688,12.358314514,0
5.912,-4858.126464844,9.114843369,0
5.914,-4857.868652344,7.289944172,0
5.916,-4858.277343750,5.352078438,0
5.918,-4875.635253906,-9.338091850,0
5.920,-4889.999511719,-18.434743881,0
5.922,-4889.206542969,-13.721144676,0
5.924,-4888.380371094,-10.029541969,0
5.926,-4880.687500000,-1.817036986,0
5.928,-4877.675292969,0.929497838,0
5.930,-4881.529785156,-2.274995804,0
5.932,-4876.600585938,2.064304352,0
5.934,-4875.979003906,2.088820696,0
5.936,-4876.815917969,0.973741770,0
5.938,-4863.448242188,11.154282570,0
5.940,-4857.368652344,13.404204369,0
5.942,-4871.040527344,-0.208185390,0
5.944,-4886.117187500,-11.888351440,0
5.946,-4889.956054688,-12.231969833,0
5.948,-4881.711914063,-3.101593971,0
5.950,-4882.525878906,-3.045260906,0
5.952,-4881.512695313,-1.580685973,0
5.954,-4872.432617188,5.832960129,0
5.956,-4881.422363281,-2.455472231,0
5.958,-4902.387207031,-18.215562820,0
5.960,-4894.085937500,-7.710745335,0
5.962,-4882.667968750,2.883224726,0
5.964,-4875.714843750,7.650211334,0
5.966,-4874.933593750,6.557747841,0
5.968,-4888.803222656,-5.686680794,0
5.970,-4889.136718750,-4.682342529,0
5.972,-4892.289550781,-6.094042301,0
5.974,-4904.225097656,-14.022810936,0
5.976,-4913.950683594,-18.470628738,0
5.978,-4931.254394531,-27.824094772,0
5.980,-4964.078125000,-47.170169830,0
5.982,-4992.268066406,-58.612632751,0
5.984,-5009.703125000,-59.147201538,0
5.986,-5027.630859375,-59.946537018,0
5.988,-5020.000976563,-40.690238953,0
5.990,-5015.596191406,-28.221565247,0
5.992,-5039.325683594,-40.406127930,0
5.994,-5034.085937500,-27.351179123,0
5.996,-5029.595214844,-17.779914856,0
5.998,-5020.646484375,-6.868694305,0
6.000,-4925.388671875,68.746055603,0
6.002,-4769.670410156,174.581024170,0
6.004,-4542.673339844,312.334594727,0
6.006,-4273.989257813,451.897735596,0
6.008,-4003.945556641,561.502563477,0
6.010,-3660.783447266,703.619018555,0
6.012,-3295.978027344,830.985900879,0
6.014,-3059.109375000,830.542846680,0
6.016,-2956.055664063,726.121215820,0
6.018,-2881.637207031,622.633850098,0
6.020,-2910.719238281,461.645416260,0
6.022,-3162.258056641,163.414093018,0
6.024,-3460.634765625,-104.969497681,0
6.026,-3643.843994141,-224.136123657,0
6.028,-3763.013427734,-267.012054443,0
6.030,-3889.240478516,-305.848632813,0
6.032,-4054.362792969,-366.305938721,0
6.034,-4230.625488281,-421.992340088,0
6.036,-4387.208984375,-449.997772217,0
6.038,-4508.306640625,-444.179534912,0
6.040,-4587.037597656,-406.702575684,0
6.042,-4650.304199219,-365.526977539,0
6.044,-4702.291015625,-324.728607178,0
6.046,-4718.741210938,-265.357879639,0
6.048,-4730.139648438,-215.252151489,0
6.050,-4765.077148438,-194.589370728,0
6.052,-4798.807128906,-177.579513550,0
6.054,-4812.442382813,-148.720687866,0
6.056,-4811.473632813,-114.916870117,0
6.058,-4815.071289063,-92.176757813,0
6.060,-4819.253417969,-74.944740295,0
6.062,-4835.196289063,-70.689567566,0
6.064,-4863.455566406,-76.959014893,0
6.066,-4870.968750000,-65.699607849,0
6.068,-4864.252441406,-45.875286102,0
6.070,-4860.948730469,-33.110866547,0
6.072,-4863.291015625,-27.574310303,0
6.074,-4856.398437500,-16.085500717,0
6.076,-4849.453125000,-7.108955860,0
6.078,-4855.570312500,-10.286865234,0
6.080,-4863.437988281,-14.120245934,0
6.082,-4885.462890625,-28.112472534,0
6.084,-4900.145019531,-33.284275055,0
6.086,-4901.128906250,-26.652822495,0
6.088,-4892.061523438,-13.677211761,0
6.090,-4868.227539063,7.899637699,0
6.092,-4858.433105469,13.761863708,0
6.094,-4862.596191406,7.465523720,0
6.096,-4857.750000000,9.575689316,0
6.098,-4863.269042969,3.155108929,0
6.100,-4902.053710938,-27.711408615,0
6.102,-4928.570800781,-42.177349091,0
6.104,-4914.412109375,-21.791736603,0
6.106,-4892.184570313,0.338684529,0
6.108,-4864.828613281,21.540014267,0
6.110,-4863.599609375,17.709249496,0
6.112,-4893.806640625,-9.720498085,0
6.114,-4896.370117188,-9.554259300,0
6.116,-4868.412109375,14.313854218,0
6.118,-4850.896484375,24.755983353,0
6.120,-4859.920410156,12.235823631,0
6.122,-4878.180175781,-4.685009956,0
6.124,-4892.404785156,-14.707222939,0
6.126,-4889.548828125,-9.217482567,0
6.128,-4869.765625000,8.217361450,0
6.130,-4864.146972656,10.761248589,0
6.132,-4859.370117188,12.085092545,0
6.134,-4851.171875000,15.775667191,0
6.136,-4860.104492188,5.322455406,0
6.138,-4861.407714844,3.125923395,0
6.140,-4868.077148438,-2.755913258,0
6.142,-4880.872070313,-12.094918251,0
6.144,-4878.317382813,-7.420177460,0
6.146,-4871.621093750,-0.562870383,0
6.148,-4866.815429688,3.299793482,0
6.150,-4864.371582031,4.467046738,0
6.152,-4865.355468750,2.709147215,0
6.154,-4867.579589844,0.377201140,0
6.156,-4865.299804688,2.066575766,0
6.158,-4852.206054688,11.791338921,0
6.160,-4839.572753906,18.996608734,0
6.162,-4840.572265625,13.997558594,0
6.164,-4848.141601563,4.999815941,0
6.166,-4861.809570313,-6.741756439,0
6.168,-4877.607421875,-17.530752182,0
6.170,-4874.242675781,-11.017663956,0
6.172,-4851.771484375,8.907978058,0
6.174,-4827.708007813,25.644338608,0
6.176,-4821.614746094,24.684312820,0
6.178,-4841.673339844,3.597745419,0
6.180,-4870.367675781,-19.519231796,0
6.182,-4887.562011719,-28.554794312,0
6.184,-4883.474121094,-19.029655457,0
6.186,-4874.864257813,-8.104212761,0
6.188,-4866.253906250,0.393887311,0
6.190,-4839.674316406,20.979118347,0
6.192,-4833.487792969,21.128644943,0
6.194,-4841.005859375,10.585530281,0
6.196,-4834.258789063,13.481016159,0
6.198,-4846.219726563,1.182114005,0
6.200,-4865.617675781,-14.167653084,0
6.202,-4865.435058594,-10.876922607,0
6.204,-4865.510742188,-8.518710136,0
6.206,-4870.828613281,-10.761522293,0
6.208,-4866.030273438,-4.638174057,0
6.210,-4861.750000000,-0.278209686,0
6.212,-4861.404785156,0.052012119,0
6.214,-4864.115722656,-2.068201542,0
6.216,-4876.881835938,-11.537472725,0
6.218,-4888.620117188,-18.102972031,0
6.220,-4878.713378906,-6.375112534,0
6.222,-4864.671875000,5.962782383,0
6.224,-4852.288574219,14.269160271,0
6.226,-4846.642578125,15.489363670,0
6.228,-4845.989257813,12.555024147,0
6.230,-4854.773925781,2.932588339,0
6.232,-4868.604003906,-8.475790024,0
6.234,-4858.033203125,1.629665852,0
6.236,-4838.717285156,16.290811539,0
6.238,-4844.141113281,8.451893806,0
6.240,-4851.010742188,1.230543256,0
6.242,-4837.635253906,11.359972954,0
6.244,-4842.883300781,4.753884315,0
6.246,-4851.396484375,-2.924012899,0
6.248,-4835.708984375,9.926923752,0
6.250,-4816.973144531,22.293281555,0
6.252,-4809.202148438,23.383062363,0
6.254,-4814.992187500,13.682966232,0
6.256,-4818.094238281,8.229521751,0
6.258,-4803.681640625,17.610261917,0
6.260,-4777.689941406,33.912258148,0
6.262,-4759.490722656,40.530784607,0
6.264,-4764.946777344,27.279958725,0
6.266,-4782.743652344,7.375730991,0
6.268,-4787.369140625,2.139009237,0
6.270,-4782.807617188,5.211560249,0
6.272,-4779.248535156,6.821422577,0
6.274,-4774.204101563,9.228882790,0
6.276,-4786.632812500,-2.488627911,0
6.278,-4797.678710938,-10.526711464,0
6.280,-4786.964843750,0.145443514,0
6.282,-4793.440917969,-4.923687458,0
6.284,-4807.080566406,-14.438126564,0
6.286,-4815.689453125,-17.925355911,0
6.288,-4832.548828125,-27.054433823,0
6.290,-4837.014160156,-24.514961243,0
6.292,-4835.892089844,-18.194343567,0
6.294,-4848.446777344,-23.915323257,0
6.296,-4853.965820313,-22.893365860,0
6.298,-4847.793457031,-13.004955292,0
6.300,-4846.633300781,-9.212594032,0
6.302,-4856.923828125,-15.168725967,0
6.304,-4865.398437500,-18.389026642,0
6.306,-4867.308105469,-15.787508965,0
6.308,-4868.623535156,-13.302476883,0
6.310,-4864.912109375,-7.459294319,0
6.312,-4869.412597656,-9.302056313,0
6.314,-4878.188964844,-14.060821533,0
6.316,-4877.646484375,-10.514307976,0
6.318,-4870.834960938,-2.879626989,0
6.320,-4861.839843750,4.756255627,0
6.322,-4850.587890625,12.450808525,0
6.324,-4872.368652344,-7.256590366,0
6.326,-4913.344238281,-37.513572693,0
6.328,-4932.645996094,-44.189105988,0
6.330,-4924.272949219,-27.856334686,0
6.332,-4907.823730469,-8.872280121,0
6.334,-4896.560546875,1.859690070,0
6.336,-4883.704101563,11.445862770,0
6.338,-4874.603515625,15.980155945,0
6.340,-4878.365234375,9.502947807,0
6.342,-4884.040527344,2.977314472,0
6.344,-4872.104003906,11.599580765,0
6.346,-4878.800781250,3.813009977,0
6.348,-4903.800292969,-16.478094101,0
6.350,-4906.339843750,-14.791209221,0
6.352,-4898.995605469,-5.792041779,0
6.354,-4885.836425781,5.729974747,0
6.356,-4876.475585938,11.736993790,0
6.358,-4874.691406250,10.516257286,0
6.360,-4883.581542969,1.264662147,0
6.362,-4893.105957031,-6.424154282,0
6.364,-4879.387695313,5.673214436,0
6.366,-4866.635253906,14.331014633,0
6.368,-4869.980957031,8.544101715,0
6.370,-4877.714355469,0.630498409,0
6.372,-4897.256835938,-14.709258080,0
6.374,-4902.596679688,-15.593388557,0
6.376,-4893.256347656,-4.863498688,0
6.378,-4876.833496094,8.990509033,0
6.380,-4871.204101563,11.370873451,0
6.382,-4882.085937500,0.380427122,0
6.384,-4889.639648438,-5.579291821,0
6.386,-4890.712402344,-5.173601627,0
6.388,-4873.944824219,9.017292976,0
6.390,-4853.413085938,22.982395172,0
6.392,-4852.877441406,18.291444778,0
6.394,-4866.254882813,3.821895838,0
6.396,-4879.275390625,-7.154375553,0
6.398,-4893.882812500,-16.925451279,0
6.400,-4896.908691406,-15.517471313,0
6.402,-4896.793457031,-11.979704857,0
6.404,-4898.340820313,-10.520733833,0
6.406,-4896.700683594,-6.906986237,0
6.408,-4886.767089844,2.353969336,0
6.410,-4875.004882813,10.978959084,0
6.412,-4884.550292969,1.115173936,0
6.414,-4898.118164063,-9.685464859,0
6.416,-4900.047851563,-9.033661842,0
6.418,-4903.915039063,-10.033900261,0
6.420,-4907.645996094,-10.706047058,0
6.422,-4897.520019531,-0.451075733,0
6.424,-4885.940917969,8.654909134,0
6.426,-4874.910156250,15.310980797,0
6.428,-4886.544921875,2.859378338,0
6.430,-4910.466796875,-16.381813049,0
6.432,-4900.095214844,-4.674499989,0
6.434,-4890.118164063,4.123874664,0
6.436,-4902.027832031,-6.055373192,0
6.438,-4903.003417969,-5.468328476,0
6.440,-4894.282714844,2.529588699,0
6.442,-4895.545898438,0.984990537,0
6.444,-4897.644531250,-0.866469383,0
6.446,-4889.042968750,6.016272068,0
6.448,-4891.560546875,2.721004009,0
6.450,-4897.879882813,-2.798686743,0
6.452,-4892.679199219,1.868277788,0
