Time,Vin,RawSignal,Event
Verified data,Verified data,For Reference Only,For Reference Only
0.002,-42.413986206,-32.988227844,0
0.004,242.314575195,195.795501709,0
0.006,-843.590515137,-692.298461914,0
0.008,1924.053344727,1614.136596680,0
0.010,-3271.031494141,-2785.145751953,0
0.012,3675.073730469,3236.259765625,0
0.014,-1503.392944336,-1510.585815430,0
0.016,1263.283325195,976.946655273,0
0.018,186.543045044,-77.616302490,0
0.020,465.949798584,156.946090698,0
0.022,432.228607178,95.840339661,0
0.024,444.305389404,83.934440613,0
0.026,442.872833252,64.167304993,0
0.028,438.638854980,46.614204407,0
0.030,439.813354492,37.168506622,0
0.032,444.301574707,32.399250031,0
0.034,453.767303467,32.561233521,0
0.036,468.307067871,36.633636475,0
0.038,469.477539063,29.402826309,0
0.040,458.651855469,14.448697090,0
0.042,454.741302490,8.196213722,0
0.044,446.940917969,0.307867050,0
0.046,436.889312744,-7.578372478,0
0.048,447.767456055,2.566456556,0
0.050,455.688079834,8.156530380,0
0.052,453.538391113,4.671930313,0
0.054,449.660095215,0.617264032,0
0.056,444.554504395,-3.490884542,0
0.058,434.076812744,-10.864306450,0
0.060,422.831756592,-17.195940018,0
0.062,416.428710938,-18.354537964,0
0.064,406.269317627,-22.177225113,0
0.066,391.532440186,-28.710584641,0
0.068,391.172851563,-22.609834671,0
0.070,391.536773682,-17.302154541,0
0.072,393.231353760,-12.139070511,0
0.074,396.741363525,-6.711409092,0
0.076,385.591583252,-13.891861916,0
0.078,382.889312744,-12.906367302,0
0.080,381.707611084,-10.957253456,0
0.082,372.317687988,-15.825377464,0
0.084,363.174530029,-19.419710159,0
0.086,362.890380859,-15.325036049,0
0.088,373.897644043,-3.358220339,0
0.090,367.722045898,-7.415081024,0
0.092,371.650299072,-2.711944342,0
0.094,383.260894775,6.921064377,0
0.096,379.143737793,2.180799484,0
0.098,401.851806641,19.357748032,0
0.100,438.652130127,43.677944183,0
0.102,440.887451172,35.709850311,0
0.104,436.534301758,24.388231277,0
0.106,449.473358154,29.031957626,0
0.108,448.526245117,21.843477249,0
0.110,436.607116699,7.718842983,0
0.112,426.451324463,-1.895372272,0
0.114,422.164733887,-4.808134556,0
0.116,426.961914063,-0.008525449,0
0.118,428.576324463,1.248999000,0
0.120,436.513977051,7.145080090,0
0.122,447.069396973,13.766876221,0
0.124,438.269683838,3.863314867,0
0.126,429.053283691,-4.163467407,0
0.128,428.176666260,-3.920018435,0
0.130,432.471801758,0.291760057,0
0.132,423.680603027,-6.610581398,0
0.134,394.241088867,-28.038612366,0
0.136,369.275054932,-41.225284576,0
0.138,357.569061279,-41.168239594,0
0.140,346.328826904,-40.761619568,0
0.142,328.919128418,-45.243789673,0
0.144,320.937835693,-41.396747589,0
0.146,318.066131592,-34.430553436,0
0.148,319.956024170,-25.309087753,0
0.150,328.213897705,-13.261867523,0
0.152,338.169189453,-2.571755886,0
0.154,352.857086182,9.423550606,0
0.156,366.851013184,18.213340759,0
0.158,362.498626709,10.780602455,0
0.160,344.373870850,-5.712030411,0
0.162,343.518859863,-5.107631207,0
0.164,350.320648193,1.317655444,0
0.166,342.464324951,-5.085567474,0
0.168,334.141693115,-10.428458214,0
0.170,341.359741211,-2.496969938,0
0.172,337.680480957,-4.803670883,0
0.174,316.703002930,-20.051734924,0
0.176,309.503936768,-21.194791794,0
0.178,315.461608887,-11.850933075,0
0.180,304.069305420,-18.077838898,0
0.182,299.537567139,-17.585004807,0
0.184,307.511718750,-7.475001812,0
0.186,304.245697021,-8.354021072,0
0.188,299.038269043,-10.547660828,0
0.190,303.538055420,-4.703836918,0
0.192,303.722534180,-3.515013218,0
0.194,295.406738281,-9.201631546,0
0.196,287.062255859,-13.646788597,0
0.198,282.244781494,-14.360918045,0
0.200,279.490997314,-13.311260223,0
0.202,272.650695801,-15.673233986,0
0.204,252.565444946,-27.811792374,0
0.206,220.286270142,-46.736808777,0
0.208,175.520507813,-71.167747498,0
0.210,137.907928467,-84.605819702,0
0.212,123.644943237,-76.896957397,0
0.214,127.751113892,-56.614322662,0
0.216,130.175582886,-42.147121429,0
0.218,100.572547913,-55.804954529,0
0.220,82.144134521,-57.736309052,0
0.222,81.007705688,-45.789314270,0
0.224,34.945346832,-71.439262390,0
0.226,49.813476563,-43.999198914,0
0.228,142.994018555,38.251667023,0
0.230,265.580291748,125.094535828,0
0.232,508.822540283,286.480468750,0
0.234,812.723205566,459.179382324,0
0.236,1096.666870117,577.977050781,0
0.238,1466.648315430,737.291503906,0
0.240,1905.076416016,914.436706543,0
0.242,2222.366943359,957.997680664,0
0.244,2342.618408203,838.627197266,0
0.246,2394.120361328,692.313781738,0
0.248,2360.832031250,512.568603516,0
0.250,2136.982666016,224.556640625,0
0.252,1957.034423828,34.694858551,0
0.254,1861.697387695,-47.165538788,0
0.256,1691.379272461,-169.151718140,0
0.258,1510.011352539,-272.622833252,0
0.260,1317.265869141,-361.948425293,0
0.262,1118.750244141,-435.910827637,0
0.264,950.544494629,-469.862365723,0
0.266,795.585388184,-485.965972900,0
0.268,661.998168945,-481.868438721,0
0.270,558.771423340,-455.068084717,0
0.272,480.173156738,-415.068450928,0
0.274,404.736145020,-381.499298096,0
0.276,344.520538330,-343.551574707,0
0.278,298.616149902,-302.906280518,0
0.280,270.600738525,-257.380187988,0
0.282,248.471054077,-217.393737793,0
0.284,236.670013428,-178.260284424,0
0.286,241.663925171,-134.760986328,0
0.288,223.794509888,-118.710998535,0
0.290,207.403305054,-105.078132629,0
0.292,208.116653442,-81.171546936,0
0.294,204.879074097,-65.650695801,0
0.296,197.897048950,-56.491386414,0
0.298,198.719573975,-43.297443390,0
0.300,205.247619629,-28.598047256,0
0.302,193.541610718,-31.347183228,0
0.304,177.203948975,-37.087734222,0
0.306,166.744262695,-36.980846405,0
0.308,153.630279541,-38.962139130,0
0.310,152.839965820,-30.918170929,0
0.312,158.314331055,-19.789375305,0
0.314,143.396072388,-26.994478226,0
0.316,124.314201355,-35.836692810,0
0.318,119.556068420,-31.573343277,0
0.320,131.341217041,-15.390610695,0
0.322,144.703842163,-1.577305675,0
0.324,142.797729492,-2.709296703,0
0.326,138.335525513,-5.577754498,0
0.328,141.447021484,-1.918175817,0
0.330,140.279739380,-2.399770737,0
0.332,145.208862305,1.967243314,0
0.334,151.396804810,6.342845440,0
0.336,142.044479370,-2.340681791,0
0.338,138.681594849,-4.436040401,0
0.340,130.420349121,-9.875544548,0
0.342,117.963478088,-17.369430542,0
0.344,122.312683105,-10.126711845,0
0.346,127.377494812,-3.936980963,0
0.348,128.535934448,-2.161054850,0
0.350,130.414123535,-0.220006943,0
0.352,125.171379089,-4.248754978,0
0.354,126.175140381,-2.523850203,0
0.356,117.371925354,-8.809823036,0
0.358,97.556312561,-22.263938904,0
0.360,95.284347534,-19.083232880,0
0.362,111.953857422,-1.877317905,0
0.364,125.243865967,8.876423836,0
0.366,120.745674133,3.405249357,0
0.368,107.424644470,-7.712174892,0
0.370,101.630966187,-10.504414558,0
0.372,110.857017517,-0.994275093,0
0.374,116.437171936,3.566748381,0
0.376,110.470932007,-1.866244078,0
0.378,106.611503601,-4.453240395,0
0.380,123.228019714,9.460201263,0
0.382,134.636566162,16.231031418,0
0.384,121.230850220,2.197441578,0
0.386,125.217903137,4.810102463,0
0.388,136.170150757,12.259445190,0
0.390,133.781799316,7.677420139,0
0.392,134.268722534,6.349960804,0
0.394,137.876632690,7.744915485,0
0.396,132.781402588,2.060836554,0
0.398,127.221511841,-2.721454859,0
0.400,126.242752075,-2.877907276,0
0.402,123.755149841,-4.173116684,0
0.404,126.841239929,-0.845456362,0
0.406,124.523963928,-2.459867954,0
0.408,119.008987427,-6.202581882,0
0.410,127.269241333,1.600391984,0
0.412,128.468627930,2.177575111,0
0.414,123.771957397,-1.959265113,0
0.416,128.748657227,2.346861124,0
0.418,125.943611145,-0.356361419,0
0.420,127.811988831,1.175998449,0
0.422,130.214660645,2.783372641,0
0.424,114.388053894,-10.144608498,0
0.426,109.693321228,-11.541557312,0
0.428,113.597595215,-5.940032005,0
0.430,124.065841675,3.521899939,0
0.432,143.626022339,17.952495575,0
0.434,151.899505615,20.397722244,0
0.436,154.646316528,18.001068115,0
0.438,161.266754150,19.149810791,0
0.440,162.610626221,15.939325333,0
0.442,147.147750854,0.370563745,0
0.444,133.635147095,-10.221453667,0
0.446,124.344528198,-15.175858498,0
0.448,118.857002258,-16.071311951,0
0.450,118.314781189,-12.921468735,0
0.452,119.901695251,-8.815653801,0
0.454,113.937278748,-11.495459557,0
0.456,114.045425415,-8.856680870,0
0.458,127.785026550,3.797772884,0
0.460,133.219024658,7.180174351,0
0.462,139.697372437,10.623156548,0
0.464,148.243240356,14.909050941,0
0.466,146.721801758,10.412450790,0
0.468,136.347366333,0.029565958,0
0.470,129.999465942,-4.914190769,0
0.472,122.917205811,-9.330455780,0
0.474,115.447738647,-13.066439629,0
0.476,126.918388367,-1.241154075,0
0.478,151.254745483,17.962701797,0
0.480,150.164367676,13.122749329,0
0.482,132.450271606,-3.570998907,0
0.484,118.496475220,-13.630217552,0
0.486,121.360992432,-8.373218536,0
0.488,120.780937195,-6.963562965,0
0.490,103.732673645,-18.675624847,0
0.492,99.073425293,-18.149105072,0
0.494,107.346382141,-7.681354046,0
0.496,108.152412415,-5.347402573,0
0.498,108.585006714,-3.822577477,0
0.500,112.418701172,0.008646005,0
0.502,98.135543823,-11.102257729,0
0.504,83.400970459,-20.095050812,0
0.506,88.971023560,-11.297073364,0
0.508,91.585372925,-6.753142834,0
0.510,78.026100159,-15.798340797,0
0.512,74.148582458,-15.303247452,0
0.514,75.632148743,-10.748500824,0
0.516,79.035812378,-5.712573051,0
0.518,83.182891846,-1.217590809,0
0.520,87.510894775,2.419176102,0
0.522,92.813285828,6.005586147,0
0.524,91.554733276,3.692087650,0
0.526,91.561622620,2.876944780,0
0.528,88.891883850,0.161156997,0
0.530,87.775245667,-0.743141592,0
0.532,89.872215271,1.052964449,0
0.534,82.531082153,-4.890734196,0
0.536,79.171531677,-6.416805267,0
0.538,96.161682129,8.223607063,0
0.540,104.226890564,12.668913841,0
0.542,98.124519348,5.107242584,0
0.544,83.089874268,-7.721210003,0
0.546,63.766170502,-21.034660339,0
0.548,68.108917236,-12.982429504,0
0.550,87.080024719,4.657802105,0
0.552,82.231132507,-0.148624256,0
0.554,67.796478271,-11.342405319,0
0.556,49.646038055,-22.938581467,0
0.558,63.429328918,-7.120689392,0
0.560,95.288154602,19.240520477,0
0.562,100.881233215,19.314775467,0
0.564,95.100524902,10.526356697,0
0.566,99.835319519,11.869629860,0
0.568,99.827445984,9.225694656,0
0.570,108.148902893,13.647603989,0
0.572,112.467369080,13.973426819,0
0.574,101.036621094,1.977614522,0
0.576,108.302803040,7.189526081,0
0.578,116.926101685,12.298703194,0
0.580,109.384887695,3.700225592,0
0.582,109.865097046,3.251406193,0
0.584,109.343795776,2.123384476,0
0.586,96.396896362,-8.418179512,0
0.588,93.798721313,-8.568165779,0
0.590,86.050025940,-12.690722466,0
0.592,67.951637268,-23.946775436,0
0.594,75.233665466,-12.961305618,0
0.596,89.267410278,0.834110498,0
0.598,90.795524597,1.837263465,0
0.600,96.715347290,6.033208370,0
0.602,103.592567444,10.041312218,0
0.604,106.071327209,9.737711906,0
0.606,115.711120605,15.071197510,0
0.608,109.008132935,6.508519173,0
0.610,83.020683289,-15.150081635,0
0.612,76.733695984,-16.673055649,0
0.614,88.006851196,-4.199870110,0
0.616,115.426414490,18.059528351,0
0.618,127.376983643,23.340883255,0
0.620,113.148437500,7.087280750,0
0.622,107.163314819,0.857222915,0
0.624,103.848007202,-1.911821604,0
0.626,99.709541321,-4.705716610,0
0.628,88.432289124,-12.431034088,0
0.630,96.378433228,-3.488202572,0
0.632,112.439682007,9.778904915,0
0.634,102.731140137,0.054726213,0
0.636,102.004440308,-0.522635937,0
0.638,106.773796082,3.302958965,0
0.640,100.887237549,-2.009441614,0
0.642,96.057342529,-5.319411755,0
0.644,100.329177856,-0.814770222,0
0.646,104.042167664,2.254138470,0
0.648,96.977294922,-3.741634607,0
0.650,93.166923523,-5.873705864,0
0.652,89.806922913,-7.181675911,0
0.654,98.363288879,1.069191694,0
0.656,95.106834412,-1.701187611,0
0.658,101.067939758,3.313231230,0
0.660,125.343345642,21.457548141,0
0.662,116.384185791,9.720841408,0
0.664,103.675819397,-2.323599339,0
0.666,97.399818420,-6.688489437,0
0.668,89.874038696,-11.055403709,0
0.670,96.385971069,-3.533763170,0
0.672,93.637870789,-4.885829449,0
0.674,82.353790283,-12.576435089,0
0.676,77.656799316,-13.434711456,0
0.678,81.660499573,-7.335135937,0
0.680,88.657104492,-0.263299882,0
0.682,81.432151794,-5.824116230,0
0.684,70.494995117,-13.036381721,0
0.686,79.216957092,-3.355612755,0
0.688,77.541572571,-3.912948847,0
0.690,70.917091370,-8.195669174,0
0.692,74.376731873,-3.683532953,0
0.694,83.906867981,4.547300339,0
0.696,85.520523071,4.791790962,0
0.698,77.144462585,-2.787727118,0
0.700,67.159286499,-9.934350014,0
0.702,68.601829529,-6.604656219,0
0.704,75.630531311,0.329808950,0
0.706,76.198425293,0.698202670,0
0.708,98.456977844,17.855022430,0
0.710,109.362525940,22.369047165,0
0.712,98.887619019,9.250873566,0
0.714,116.239051819,20.690416336,0
0.716,133.734054565,29.699378967,0
0.718,144.547576904,31.509630203,0
0.720,162.663558960,38.597198486,0
0.722,170.548568726,36.152355194,0
0.724,171.290878296,28.695480347,0
0.726,163.654556274,16.379135132,0
0.728,162.567550659,11.893720627,0
0.730,167.787551880,13.310498238,0
0.732,153.208557129,-0.986593306,0
0.734,151.110870361,-2.398847580,0
0.736,150.913421631,-2.019324541,0
0.738,157.120376587,3.257009506,0
0.740,175.788864136,17.052940369,0
0.742,178.246063232,15.174353600,0
0.744,173.427688599,8.054551125,0
0.746,175.402496338,7.800509930,0
0.748,177.278533936,7.526098728,0
0.750,178.071609497,6.470389843,0
0.752,176.475540161,3.791095495,0
0.754,168.413772583,-3.321594477,0
0.756,154.967269897,-13.041681290,0
0.758,145.491165161,-17.513616562,0
0.760,146.450988770,-12.874995232,0
0.762,144.049041748,-11.881921768,0
0.764,140.461822510,-12.031391144,0
0.766,140.486099243,-9.338741302,0
0.768,145.998046875,-2.976361990,0
0.770,157.297637939,6.473532677,0
0.772,163.591247559,9.929880142,0
0.774,167.511932373,10.772515297,0
0.776,157.336624146,0.464494705,0
0.778,145.342193604,-8.967617035,0
0.780,151.302352905,-2.339096785,0
0.782,157.619979858,3.094365835,0
0.784,164.383499146,7.667149067,0
0.786,165.414276123,6.764965534,0
0.788,154.543472290,-3.193389177,0
0.790,149.276504517,-6.580192566,0
0.792,166.231063843,8.068840027,0
0.794,172.959075928,11.508514404,0
0.796,154.789779663,-5.180538177,0
0.798,146.882583618,-10.179218292,0
0.800,153.230316162,-2.980003357,0
0.802,161.876754761,4.407169342,0
0.804,167.407897949,7.729702473,0
0.806,158.950531006,-0.565955877,0
0.808,132.535797119,-20.984703064,0
0.810,135.149154663,-14.288640976,0
0.812,164.565338135,11.765711784,0
0.814,182.565307617,23.150787354,0
0.816,181.444320679,17.134063721,0
0.818,161.009384155,-2.567318678,0
0.820,152.840057373,-8.350610733,0
0.822,157.492965698,-2.875953436,0
0.824,150.675674438,-7.539088726,0
0.826,120.169692993,-29.590227127,0
0.828,71.334785461,-60.996540070,0
0.830,35.264972687,-75.495071411,0
0.832,26.285707474,-65.701408386,0
0.834,22.279348373,-54.216445923,0
0.836,11.520220757,-50.535900116,0
0.838,-6.413226604,-53.253246307,0
0.840,-19.732528687,-51.777976990,0
0.842,-21.613399506,-41.734119415,0
0.844,-36.990867615,-44.419544220,0
0.846,-51.334232330,-45.703891754,0
0.848,13.438817978,14.831375122,0
0.850,135.831665039,106.728569031,0
0.852,316.375305176,223.431030273,0
0.854,596.221923828,391.433105469,0
0.856,875.620910645,521.751464844,0
0.858,1177.449584961,640.554016113,0
0.860,1591.220214844,820.019653320,0
0.862,1971.409545898,933.483825684,0
0.864,2168.523925781,879.342651367,0
0.866,2267.319824219,760.764648438,0
0.868,2334.689208984,644.095764160,0
0.870,2219.751220703,411.561859131,0
0.872,1975.396972656,130.048706055,0
0.874,1815.890380859,-22.911441803,0
0.876,1679.849243164,-123.628128052,0
0.878,1517.768188477,-222.215423584,0
0.880,1346.244506836,-306.237457275,0
0.882,1150.533691406,-390.399230957,0
0.884,977.321777344,-438.358520508,0
0.886,828.147705078,-456.963836670,0
0.888,686.035766602,-465.941772461,0
0.890,560.897216797,-459.723175049,0
0.892,475.808105469,-423.737396240,0
0.894,419.445495605,-373.406250000,0
0.896,363.382019043,-334.027679443,0
0.898,323.100891113,-291.125305176,0
0.900,300.603363037,-243.925689697,0
0.902,278.132659912,-207.194488525,0
0.904,270.041107178,-167.442550659,0
0.906,264.258361816,-134.729034424,0
0.908,249.853652954,-115.991401672,0
0.910,227.321884155,-107.738845825,0
0.912,210.213653564,-97.102020264,0
0.914,222.545028687,-65.931861877,0
0.916,239.588973999,-38.023448944,0
0.918,220.366485596,-44.524036407,0
0.920,191.067825317,-57.416904449,0
0.922,186.164779663,-48.470443726,0
0.924,189.255447388,-35.294918060,0
0.926,183.650024414,-31.810974121,0
0.928,183.321166992,-24.997322083,0
0.930,193.017959595,-11.900258064,0
0.932,199.928192139,-3.881078720,0
0.934,187.674484253,-12.549115181,0
0.936,181.574371338,-14.504768372,0
0.938,191.538772583,-3.531350374,0
0.940,193.722015381,-1.048511744,0
0.942,195.267089844,0.386210859,0
0.944,205.124969482,7.967525482,0
0.946,208.749572754,9.015981674,0
0.948,205.422912598,4.424973965,0
0.950,206.117401123,3.981752872,0
0.952,211.044403076,6.928939819,0
0.954,213.669113159,7.430522442,0
0.956,217.974563599,9.127856255,0
0.958,222.073928833,10.287702560,0
0.960,225.485534668,10.654883385,0
0.962,218.187622070,2.610939503,0
0.964,219.941238403,3.394615412,0
0.966,233.680435181,13.326126099,0
0.968,228.540603638,6.367026329,0
0.970,220.549758911,-1.262942672,0
0.972,220.532592773,-0.995629489,0
0.974,212.827621460,-6.767053604,0
0.976,205.284255981,-11.130171776,0
0.978,209.042526245,-5.733637810,0
0.980,217.374984741,2.021281719,0
0.982,223.086563110,6.014373302,0
0.984,219.673156738,2.022950649,0
0.986,211.649017334,-4.667538643,0
0.988,210.341964722,-4.646837234,0
0.990,221.032424927,4.700534821,0
0.992,229.526626587,10.262436867,0
0.994,238.799026489,15.193565369,0
0.996,248.517868042,19.376062393,0
0.998,250.269577026,16.432500839,0
1.000,246.325820923,9.713341713,0
1.002,244.486770630,6.124361515,0
1.004,239.806030273,1.122813702,0
1.006,239.092086792,0.318003505,0
1.008,249.224975586,8.128366470,0
1.010,255.620300293,11.296058655,0
1.012,256.305450439,9.318590164,0
1.014,258.702331543,9.111917496,0
1.016,263.708099365,10.980279922,0
1.018,254.072769165,1.046054840,0
1.020,256.053741455,2.354329586,0
1.022,269.939666748,12.631132126,0
1.024,263.908081055,5.132935524,0
1.026,258.848571777,0.057086352,0
1.028,265.711029053,5.381801128,0
1.030,262.228210449,1.476985335,0
1.032,263.927886963,2.470687151,0
1.034,272.903289795,8.902401924,0
1.036,282.324066162,14.251189232,0
1.038,308.012908936,31.064050674,0
1.040,315.075500488,29.653676987,0
1.042,299.300231934,10.794170380,0
1.044,301.722015381,10.278940201,0
1.046,304.880462646,10.451166153,0
1.048,291.508728027,-2.271514654,0
1.050,288.055114746,-4.452822208,0
1.052,299.118560791,5.141538143,0
1.054,309.646057129,12.186853409,0
1.056,312.314086914,11.553659439,0
1.058,311.414916992,8.286720276,0
1.060,309.030303955,4.590451717,0
1.062,299.337097168,-3.968742371,0
1.064,299.015014648,-3.337264299,0
1.066,315.288940430,10.061721802,0
1.068,315.343536377,7.868145466,0
1.070,308.605804443,0.879183650,0
1.072,320.255218506,9.744334221,0
1.074,330.161590576,15.283690453,0
1.076,323.155822754,6.438306808,0
1.078,317.842102051,0.874659598,0
1.080,325.471618652,6.614278316,0
1.082,335.350219727,12.827631950,0
1.084,351.442413330,22.492900848,0
1.086,356.284759521,21.260461807,0
1.088,348.611358643,10.567592621,0
1.090,338.702148438,0.512049794,0
1.092,326.991668701,-8.709756851,0
1.094,326.743408203,-6.967271805,0
1.096,332.044525146,-1.295885324,0
1.098,339.382843018,4.699629307,0
1.100,338.512695313,2.978444338,0
1.102,318.663208008,-13.121751785,0
1.104,304.189941406,-21.462526321,0
1.106,292.312622070,-25.930646896,0
1.108,286.236846924,-24.893560410,0
1.110,281.491760254,-23.051973343,0
1.112,271.640258789,-25.591274261,0
1.114,262.445648193,-27.055335999,0
1.116,261.828613281,-21.522668839,0
1.118,276.097167969,-5.642028332,0
1.120,289.219757080,5.818140984,0
1.122,268.417419434,-11.654211044,0
1.124,255.786270142,-18.888372421,0
1.126,270.055297852,-3.592783928,0
1.128,264.250976563,-7.308764458,0
1.130,257.410888672,-11.004523277,0
1.132,259.027526855,-7.301593781,0
1.134,252.500656128,-10.755321503,0
1.136,252.378646851,-8.460040092,0
1.138,252.377975464,-6.580472469,0
1.140,258.979644775,0.016491283,0
1.142,272.812469482,10.771540642,0
1.144,272.713012695,8.300408363,0
1.146,266.700286865,1.779280543,0
1.148,256.966094971,-6.187066555,0
1.150,252.032699585,-8.649134636,0
1.152,264.815582275,3.215095282,0
1.154,257.255035400,-3.379762173,0
1.156,235.846618652,-19.279428482,0
1.158,242.169448853,-10.077232361,0
1.160,253.195175171,0.737709224,0
1.162,252.701019287,0.189427927,0
1.164,252.755737305,0.189893544,0
1.166,262.293518066,7.565861702,0
1.168,275.098571777,15.843852997,0
1.170,275.015045166,12.257859230,0
1.172,271.320587158,6.660336018,0
1.174,261.419464111,-2.520576715,0
1.176,252.059539795,-9.240265846,0
1.178,251.481750488,-7.636159897,0
1.180,256.063201904,-2.375850677,0
1.182,265.970489502,5.857694149,0
1.184,273.956939697,10.767526627,0
1.186,281.262054443,14.056322098,0
1.188,284.377929688,13.355978966,0
1.190,272.925079346,1.480191708,0
1.192,258.057647705,-10.412164688,0
1.194,258.521759033,-7.737267494,0
1.196,274.552703857,6.450563431,0
1.198,289.773986816,16.855644226,0
1.200,297.796875000,19.349716187,0
1.202,285.534271240,5.512140751,0
1.204,269.877197266,-7.890400887,0
1.206,275.432006836,-1.816559553,0
1.208,278.577545166,1.033650041,0
1.210,287.194824219,7.506176472,0
1.212,287.928161621,6.408416748,0
1.214,279.105834961,-1.877449989,0
1.216,285.015258789,3.135941982,0
1.218,291.805908203,7.720585346,0
1.220,293.656036377,7.443775654,0
1.222,291.276184082,3.938558578,0
1.224,281.538482666,-4.510376453,0
1.226,282.840789795,-2.495130777,0
1.228,290.159301758,3.751470804,0
1.230,285.665496826,-0.577369809,0
1.232,309.719635010,18.259473801,0
1.234,321.410675049,23.294538498,0
1.236,303.226257324,3.974493504,0
1.238,296.650390625,-2.023280144,0
1.240,303.298461914,3.597023010,0
1.242,303.356903076,2.843092203,0
1.244,297.447021484,-2.385244131,0
1.246,303.291351318,2.690359831,0
1.248,298.777770996,-1.418030977,0
1.250,287.999450684,-9.485938072,0
1.252,287.663818359,-7.638894081,0
1.254,292.983489990,-1.803820014,0
1.256,301.871093750,5.509541512,0
1.258,289.819854736,-5.087923050,0
1.260,275.800537109,-14.860996246,0
1.262,278.167938232,-9.717096329,0
1.264,276.143127441,-9.132486343,0
1.266,280.899353027,-3.403712988,0
1.268,299.225982666,11.606567383,0
1.270,308.174987793,15.987444878,0
1.272,296.402465820,3.278245926,0
1.274,297.698913574,3.558042288,0
1.276,301.867034912,6.009156227,0
1.278,281.054138184,-11.513875961,0
1.280,255.775894165,-28.615713120,0
1.282,274.360748291,-7.801676273,0
1.284,298.997283936,13.093596458,0
1.286,290.392883301,3.491561174,0
1.288,282.019653320,-3.796804667,0
1.290,275.043365479,-8.378966331,0
1.292,266.684417725,-13.018213272,0
1.294,263.359588623,-12.711080551,0
1.296,264.149780273,-9.271673203,0
1.298,268.301544189,-3.982116699,0
1.300,271.373382568,-0.707980812,0
1.302,271.071563721,-0.785377741,0
1.304,261.356353760,-8.167033195,0
1.306,258.725372314,-8.398347855,0
1.308,263.740631104,-2.631250381,0
1.310,243.361312866,-17.896869659,0
1.312,234.790771484,-20.585508347,0
1.314,262.849365234,5.812324524,0
1.316,276.318969727,14.996863365,0
1.318,267.607543945,4.888611794,0
1.320,258.151336670,-3.552520514,0
1.322,243.566818237,-14.106413841,0
1.324,232.213699341,-19.801595688,0
1.326,248.873641968,-2.443479776,0
1.328,271.149291992,15.424834251,0
1.330,297.220916748,32.274593353,0
1.332,319.302429199,42.276424408,0
1.334,321.431793213,34.537376404,0
1.336,330.213287354,33.692020416,0
1.338,354.676452637,45.231239319,0
1.340,366.427246094,44.318782806,0
1.342,370.402343750,37.561420441,0
1.344,368.052368164,27.386325836,0
1.346,367.973480225,21.238824844,0
1.348,360.376434326,10.610130310,0
1.350,341.011535645,-6.809168339,0
1.352,339.338012695,-6.597564220,0
1.354,341.733673096,-3.268097162,0
1.356,336.311035156,-6.759383202,0
1.358,340.208557129,-2.225856066,0
1.360,342.243865967,-0.148199886,0
1.362,335.645843506,-5.246993542,0
1.364,331.742614746,-7.116761208,0
1.366,334.848754883,-3.119320869,0
1.368,334.890411377,-2.393717527,0
1.370,316.671020508,-16.032186508,0
1.372,291.665740967,-31.917636871,0
1.374,284.122619629,-30.691282272,0
1.376,271.591888428,-33.616699219,0
1.378,277.701324463,-21.394264221,0
1.380,302.411834717,2.579279184,0
1.382,288.260375977,-9.000470161,0
1.384,279.860412598,-13.533502579,0
1.386,283.484069824,-7.707556248,0
1.388,275.391876221,-12.288523674,0
1.390,279.516845703,-6.349359512,0
1.392,290.177459717,3.353158474,0
1.394,279.472778320,-5.717783451,0
1.396,257.288818359,-21.701068878,0
1.398,265.800109863,-10.258574486,0
1.400,281.808685303,4.472166538,0
1.402,286.914184570,7.449198723,0
1.404,286.404479980,5.397297859,0
1.406,279.298736572,-1.328752995,0
1.408,283.114471436,1.934277892,0
1.410,287.104553223,4.607786179,0
1.412,278.446380615,-3.150252581,0
1.414,272.188079834,-7.317677498,0
1.416,264.783935547,-11.450155258,0
1.418,256.275756836,-15.522953987,0
1.420,250.360397339,-16.674028397,0
1.422,248.494079590,-14.420073509,0
1.424,263.517761230,0.469463080,0
1.426,276.996459961,10.848428726,0
1.428,274.676116943,6.632863522,0
1.430,280.182647705,9.441626549,0
1.432,280.117370605,7.292631626,0
1.434,273.044311523,0.170784652,0
1.436,276.543579102,2.854443550,0
1.438,268.745513916,-3.844996214,0
1.440,240.148025513,-25.232715607,0
1.442,198.265869141,-52.199771881,0
1.444,148.796890259,-79.074676514,0
1.446,117.558792114,-85.797706604,0
1.448,129.852188110,-57.169281006,0
1.450,140.324661255,-36.319263458,0
1.452,121.393928528,-42.971664429,0
1.454,101.403938293,-48.969535828,0
1.456,82.843940735,-52.522289276,0
1.458,65.063812256,-54.678951263,0
1.460,37.201328278,-64.198059082,0
1.462,43.263153076,-45.216484070,0
1.464,118.159629822,23.084138870,0
1.466,233.879562378,107.957321167,0
1.468,444.896484375,248.087860107,0
1.470,740.278320313,422.693176270,0
1.472,1025.312500000,550.447387695,0
1.474,1379.946289063,703.942871094,0
1.476,1822.922119141,892.036315918,0
1.478,2164.102783203,959.156311035,0
1.480,2314.503662109,862.977722168,0
1.482,2391.862060547,731.363159180,0
1.484,2413.029052734,585.293518066,0
1.486,2228.325195313,311.565704346,0
1.488,1990.780029297,57.570804596,0
1.490,1839.567871094,-72.831192017,0
1.492,1661.996215820,-194.755294800,0
1.494,1487.167358398,-287.450531006,0
1.496,1307.260253906,-363.495727539,0
1.498,1102.063232422,-442.310852051,0
1.500,928.970703125,-478.640838623,0
1.502,776.111145020,-491.160583496,0
1.504,650.177246094,-479.956146240,0
1.506,547.429626465,-453.208160400,0
1.508,460.925048828,-419.771118164,0
1.510,409.694580078,-366.329803467,0
1.512,367.801574707,-317.502502441,0
1.514,321.215698242,-283.176177979,0
1.516,292.412200928,-242.647720337,0
1.518,284.988159180,-194.497726440,0
1.520,261.641326904,-169.432449341,0
1.522,242.873840332,-146.375823975,0
1.524,233.226303101,-121.349937439,0
1.526,223.139831543,-102.226989746,0
1.528,217.097274780,-84.208549500,0
1.530,215.959762573,-66.379402161,0
1.532,210.167785645,-56.132575989,0
1.534,204.210662842,-48.291362762,0
1.536,205.195144653,-36.793762207,0
1.538,201.471832275,-31.512870789,0
1.540,181.449340820,-40.082538605,0
1.542,171.996520996,-38.527000427,0
1.544,170.921157837,-30.801439285,0
1.546,162.845687866,-30.237195969,0
1.548,167.822235107,-19.646921158,0
1.550,166.607742310,-16.225330353,0
1.552,153.795257568,-22.584669113,0
1.554,154.886550903,-16.716863632,0
1.556,153.650070190,-13.963530540,0
1.558,145.042205811,-17.555303574,0
1.560,147.575408936,-11.683703423,0
1.562,143.961380005,-11.898072243,0
1.564,132.183609009,-18.414304733,0
1.566,135.859878540,-11.462771416,0
1.568,139.102966309,-6.393009186,0
1.570,130.609252930,-11.578407288,0
1.572,123.240814209,-14.736248016,0
1.574,121.147605896,-13.089403152,0
1.576,123.453308105,-8.387217522,0
1.578,133.458862305,1.258694649,0
1.580,130.279144287,-1.494111657,0
1.582,112.454757690,-15.025304794,0
1.584,111.041236877,-12.785584450,0
1.586,117.741218567,-4.733189583,0
1.588,120.858856201,-1.256519675,0
1.590,122.343933105,0.177761883,0
1.592,112.754447937,-7.320130825,0
1.594,93.933441162,-20.331737518,0
1.596,91.667655945,-17.575616837,0
1.598,98.019020081,-8.729865074,0
1.600,97.446594238,-7.235017776,0
1.602,105.125518799,0.345256239,0
1.604,114.398101807,7.480440617,0
1.606,102.206649780,-3.664068937,0
1.608,83.759864807,-17.197107315,0
1.610,91.944679260,-7.009471893,0
1.612,94.616249084,-3.373877764,0
1.614,79.810729980,-14.139350891,0
1.616,80.228515625,-10.672186852,0
1.618,75.334846497,-12.106620789,0
1.620,67.257781982,-15.698220253,0
1.622,79.520645142,-2.671909094,0
1.624,95.032783508,9.986716270,0
1.626,103.718833923,14.523074150,0
1.628,95.345550537,4.783107758,0
1.630,81.661033630,-6.923226357,0
1.632,82.385704041,-4.821040630,0
1.634,84.757759094,-1.904738784,0
1.636,82.172668457,-3.492042303,0
1.638,80.272453308,-4.193925381,0
1.640,76.791572571,-5.969213963,0
1.642,82.144264221,-0.479514897,0
1.644,93.541763306,8.491655350,0
1.646,91.622581482,5.111861229,0
1.648,86.337684631,-0.134581313,0
1.650,93.114746094,5.166303635,0
1.652,86.352920532,-1.240944624,0
1.654,69.811309814,-13.830697060,0
1.656,61.703788757,-17.062837601,0
1.658,59.527297974,-14.963727951,0
1.660,63.489830017,-8.556375504,0
1.662,76.590202332,3.534175396,0
1.664,69.478012085,-2.782864332,0
1.666,53.124176025,-14.883908272,0
1.668,47.962444305,-15.590848923,0
1.670,65.429908752,1.459571123,0
1.672,80.386520386,12.767975807,0
1.674,59.873287201,-6.024013042,0
1.676,47.551292419,-14.268932343,0
1.678,51.847904205,-7.756145954,0
1.680,61.174945831,1.221791744,0
1.682,73.183792114,10.290363312,0
1.684,54.598526001,-6.451507568,0
1.686,43.543064117,-13.616357803,0
1.688,61.072307587,3.043318272,0
1.690,54.314929962,-2.888677597,0
1.692,50.699050903,-5.059031487,0
1.694,61.586338043,4.533026695,0
1.696,61.573871613,3.515946150,0
1.698,67.629890442,7.444766998,0
1.700,53.846096039,-4.930291653,0
1.702,47.968616486,-8.405935287,0
1.704,59.464660645,2.403385639,0
1.706,58.065998077,0.781441033,0
1.708,57.302589417,0.014026575,0
1.710,37.085292816,-15.713450432,0
1.712,21.144954681,-24.619295120,0
1.714,23.933717728,-16.979082108,0
1.716,13.089780807,-21.639844894,0
1.718,-0.288109720,-27.235662460,0
1.720,-2.616354227,-22.993850708,0
1.722,-14.160022736,-26.862165451,0
1.724,-32.569118500,-35.210525513,0
1.726,-44.709400177,-36.827926636,0
1.728,-60.660438538,-41.049774170,0
1.730,-82.116928101,-48.615348816,0
1.732,-76.785240173,-33.664634705,0
1.734,-70.216636658,-21.074415207,0
1.736,-78.984504700,-23.210363388,0
1.738,-92.210884094,-28.339319229,0
1.740,-93.356971741,-22.932802200,0
1.742,-90.870437622,-15.902445793,0
1.744,-98.788436890,-18.526767731,0
1.746,-117.331459045,-28.831687927,0
1.748,-119.982803345,-24.486482620,0
1.750,-115.912567139,-15.879097939,0
1.752,-105.909614563,-4.570279121,0
1.754,-96.467277527,3.789330482,0
1.756,-108.085586548,-6.089125156,0
1.758,-114.907737732,-10.041970253,0
1.760,-118.041450500,-10.247625351,0
1.762,-126.263572693,-14.365172386,0
1.764,-121.569145203,-7.521588802,0
1.766,-115.593345642,-1.202268839,0
1.768,-120.531562805,-4.775867462,0
1.770,-126.018745422,-7.982270718,0
1.772,-122.115516663,-3.172548056,0
1.774,-123.318458557,-3.403114557,0
1.776,-136.142898560,-12.621265411,0
1.778,-149.001388550,-19.817331314,0
1.780,-147.822616577,-14.496469498,0
1.782,-133.132446289,0.150651172,0
1.784,-135.992706299,-2.107447147,0
1.786,-147.179077148,-10.339492798,0
1.788,-150.433746338,-10.573108673,0
1.790,-159.545043945,-15.309886932,0
1.792,-169.864700317,-19.933839798,0
1.794,-178.631790161,-22.322652817,0
1.796,-162.803253174,-5.050905704,0
1.798,-137.924331665,15.421585083,0
1.800,-152.664062500,0.530325651,0
1.802,-171.906524658,-14.553701401,0
1.804,-172.976867676,-12.151869774,0
1.806,-174.333526611,-10.506496429,0
1.808,-169.646697998,-4.526350498,0
1.810,-173.613464355,-6.605675697,0
1.812,-185.463134766,-14.353971481,0
1.814,-183.156799316,-9.370255470,0
1.816,-188.581466675,-11.507020950,0
1.818,-201.479202271,-18.981225967,0
1.820,-198.543350220,-12.479578972,0
1.822,-200.255447388,-11.037825584,0
1.824,-203.046920776,-10.755983353,0
1.826,-198.186294556,-4.585218906,0
1.828,-204.669799805,-8.608885765,0
1.830,-212.264999390,-12.603014946,0
1.832,-225.494781494,-20.091915131,0
1.834,-225.988464355,-16.010820389,0
1.836,-229.543502808,-15.217692375,0
1.838,-228.452041626,-10.986916542,0
1.840,-215.864898682,1.244596958,0
1.842,-223.564559937,-5.020540237,0
1.844,-222.623657227,-3.173007011,0
1.846,-222.318756104,-2.230720043,0
1.848,-242.338134766,-17.305410385,0
1.850,-246.376480103,-16.600482941,0
1.852,-235.171920776,-4.196777821,0
1.854,-242.294830322,-8.804081917,0
1.856,-258.248504639,-19.255792618,0
1.858,-264.571105957,-19.894048691,0
1.860,-252.123168945,-5.791331768,0
1.862,-243.919662476,1.876106739,0
1.864,-240.548461914,4.081189156,0
1.866,-246.821762085,-1.704960942,0
1.868,-250.816116333,-4.432738781,0
1.870,-248.582504272,-1.710404277,0
1.872,-251.331909180,-3.468703747,0
1.874,-257.078613281,-7.167440414,0
1.876,-262.679870605,-9.931079865,0
1.878,-266.529602051,-10.718276024,0
1.880,-289.172790527,-25.947458267,0
1.882,-298.005035400,-27.050540924,0
1.884,-282.391296387,-8.895178795,0
1.886,-276.060577393,-1.994535446,0
1.888,-286.960174561,-10.028659821,0
1.890,-303.796630859,-20.894817352,0
1.892,-300.113952637,-13.387046814,0
1.894,-305.382751465,-14.509907722,0
1.896,-333.371704102,-33.054229736,0
1.898,-326.258026123,-20.175729752,0
1.900,-308.157379150,-1.613920569,0
1.902,-327.178009033,-16.048892975,0
1.904,-339.606384277,-22.148700714,0
1.906,-330.642486572,-10.254726410,0
1.908,-331.397766113,-8.563209534,0
1.910,-348.900299072,-20.273088455,0
1.912,-354.163665771,-19.861438751,0
1.914,-346.043609619,-9.132063866,0
1.916,-344.170654297,-5.645914555,0
1.918,-347.690307617,-7.128673077,0
1.920,-360.975921631,-15.877577782,0
1.922,-373.740020752,-22.276557922,0
1.924,-367.854949951,-12.748777390,0
1.926,-368.328918457,-10.284223557,0
1.928,-378.036163330,-15.548713684,0
1.930,-386.624145508,-18.772739410,0
1.932,-395.064636230,-21.165582657,0
1.934,-393.078094482,-14.916837692,0
1.936,-376.212097168,1.515988588,0
1.938,-372.912292480,3.745586872,0
1.940,-398.237243652,-16.783750534,0
1.942,-415.214202881,-26.257982254,0
1.944,-427.735595703,-30.161334991,0
1.946,-439.344848633,-32.487831116,0
1.948,-420.815185547,-10.856193542,0
1.950,-394.879028320,11.728712082,0
1.952,-395.493957520,8.643920898,0
1.954,-398.284820557,4.552327156,0
1.956,-373.600799561,22.739088058,0
1.958,-357.410491943,30.278013229,0
1.960,-377.096679688,8.237984657,0
1.962,-389.052337646,-2.891470909,0
1.964,-394.881652832,-6.782762527,0
1.966,-390.564727783,-1.917830110,0
1.968,-372.779876709,12.340833664,0
1.970,-379.950164795,4.021488667,0
1.972,-396.073120117,-9.412121773,0
1.974,-402.782135010,-12.538498878,0
1.976,-401.319458008,-8.614425659,0
1.978,-394.869354248,-1.683330536,0
1.980,-402.518310547,-7.258352757,0
1.982,-400.790039063,-4.301130295,0
1.984,-388.272827148,6.390216351,0
1.986,-386.141387939,6.627871990,0
1.988,-408.117431641,-11.937318802,0
1.990,-438.203918457,-32.684749603,0
1.992,-439.980804443,-26.803163528,0
1.994,-429.548065186,-12.732377052,0
1.996,-445.557586670,-22.354515076,0
1.998,-465.477783203,-32.879901886,0
2.000,-461.281005859,-22.308818817,0
2.002,-466.230346680,-21.200519562,0
2.004,-473.872894287,-22.433204651,0
2.006,-473.040466309,-16.800384521,0
2.008,-473.314636230,-13.280035973,0
2.010,-477.228820801,-13.373108864,0
2.012,-470.906463623,-5.483849049,0
2.014,-464.230926514,0.926855803,0
2.016,-474.271209717,-7.088127136,0
2.018,-489.929016113,-17.691051483,0
2.020,-497.447174072,-19.606910706,0
2.022,-507.118469238,-22.771627426,0
2.024,-506.331817627,-17.099218369,0
2.026,-499.089813232,-7.666602135,0
2.028,-500.094635010,-6.744355679,0
2.030,-507.052215576,-10.656922340,0
2.032,-516.169738770,-15.379921913,0
2.034,-527.560241699,-20.821184158,0
2.036,-529.784729004,-17.924184799,0
2.038,-525.957763672,-10.964345932,0
2.040,-537.554992676,-17.547679901,0
2.042,-555.673034668,-27.739656448,0
2.044,-539.802673340,-9.231544495,0
2.046,-513.767028809,13.069698334,0
2.048,-513.826293945,10.119068146,0
2.050,-525.467773438,-1.184056878,0
2.052,-545.473144531,-16.480445862,0
2.054,-555.089111328,-20.296958923,0
2.056,-550.585449219,-12.283508301,0
2.058,-555.414184570,-13.309346199,0
2.060,-587.953918457,-35.659965515,0
2.062,-629.382690430,-59.957111359,0
2.064,-670.111816406,-78.310485840,0
2.066,-713.672790527,-94.787689209,0
2.068,-731.075744629,-87.258277893,0
2.070,-716.065612793,-56.192264557,0
2.072,-703.766235352,-34.138469696,0
2.074,-719.533508301,-38.815082550,0
2.076,-743.590759277,-48.900054932,0
2.078,-754.651489258,-46.635532379,0
2.080,-781.951416016,-57.504634857,0
2.082,-800.855712891,-59.428405762,0
2.084,-741.205932617,0.172165260,0
2.086,-609.659362793,102.446578979,0
2.088,-404.700286865,239.090194702,0
2.090,-132.040039063,398.022949219,0
2.092,130.954818726,514.118286133,0
2.094,439.824737549,640.093627930,0
2.096,844.498779297,812.586547852,0
2.098,1200.590087891,908.959899902,0
2.100,1377.897094727,844.863220215,0
2.102,1456.086547852,717.920593262,0
2.104,1499.080688477,591.814880371,0
2.106,1347.005126953,342.014953613,0
2.108,1076.306762695,55.467792511,0
2.110,885.325012207,-105.398361206,0
2.112,725.392517090,-206.365798950,0
2.114,558.008117676,-290.690795898,0
2.116,391.754028320,-355.396972656,0
2.118,212.918853760,-415.508514404,0
2.120,60.419639587,-441.778045654,0
2.122,-71.059860229,-445.861175537,0
2.124,-202.698150635,-449.160430908,0
2.126,-318.415802002,-439.343902588,0
2.128,-397.687591553,-403.362548828,0
2.130,-448.300354004,-353.087310791,0
2.132,-493.990081787,-310.155883789,0
2.134,-524.094787598,-264.643676758,0
2.136,-541.312622070,-219.222778320,0
2.138,-565.205749512,-189.087722778,0
2.140,-602.395202637,-175.991058350,0
2.142,-605.455505371,-139.260345459,0
2.144,-603.809692383,-107.032157898,0
2.146,-636.507507324,-108.677452087,0
2.148,-650.004150391,-95.023048401,0
2.150,-650.651977539,-74.409713745,0
2.152,-655.071533203,-61.310894012,0
2.154,-660.536499023,-51.936088562,0
2.156,-664.477783203,-43.459594727,0
2.158,-669.803466797,-37.943603516,0
2.160,-680.477661133,-37.813385010,0
2.162,-701.736572266,-45.944503784,0
2.164,-694.958496094,-30.462387085,0
2.166,-668.891113281,-3.418316841,0
2.168,-681.179077148,-12.215824127,0
2.170,-689.764465332,-16.178514481,0
2.172,-690.991210938,-13.537238121,0
2.174,-704.285644531,-20.868791580,0
2.176,-692.020935059,-6.691985130,0
2.178,-695.886474609,-8.211323738,0
2.180,-722.043395996,-26.730491638,0
2.182,-723.613464355,-22.011253357,0
2.184,-712.188354492,-8.233581543,0
2.186,-709.588012695,-4.381353378,0
2.188,-711.860351563,-5.175034523,0
2.190,-723.096313477,-12.763899803,0
2.192,-731.388916016,-16.377079010,0
2.194,-725.109924316,-7.853971004,0
2.196,-710.261230469,5.440255642,0
2.198,-707.552307129,6.338156223,0
2.200,-714.840393066,-0.738810778,0
2.202,-728.890686035,-11.502501488,0
2.204,-734.555725098,-13.352337837,0
2.206,-734.756530762,-10.541207314,0
2.208,-732.500183105,-6.443691730,0
2.210,-737.174316406,-8.647055626,0
2.212,-745.153320313,-12.931225777,0
2.214,-731.330810547,0.693185031,0
2.216,-740.795898438,-6.822507858,0
2.218,-749.832153320,-12.334433556,0
2.220,-734.834777832,2.071191072,0
2.222,-737.918823242,-0.787782669,0
2.224,-748.620971680,-8.936501503,0
2.226,-747.328369141,-5.945154667,0
2.228,-739.612792969,1.376955032,0
2.230,-733.790649414,5.599241734,0
2.232,-732.079101563,5.686075687,0
2.234,-720.926391602,13.096657753,0
2.236,-720.957458496,10.162026405,0
2.238,-728.322448730,2.175445795,0
2.240,-730.994262695,-0.386066943,0
2.242,-735.091247559,-3.486796379,0
2.244,-728.570556641,2.359689474,0
2.246,-725.616027832,4.133189678,0
2.248,-741.512145996,-9.148812294,0
2.250,-750.365905762,-14.001820564,0
2.252,-750.183593750,-10.748332024,0
2.254,-740.851623535,-1.101636171,0
2.256,-717.932373047,16.969034195,0
2.258,-715.882568359,14.792261124,0
2.260,-732.395874023,-1.338604093,0
2.262,-725.704284668,4.163417339,0
2.264,-707.038696289,17.755664825,0
2.266,-701.465759277,18.144231796,0
2.268,-715.350219727,3.313094139,0
2.270,-731.481567383,-9.969635963,0
2.272,-726.498168945,-3.878108740,0
2.274,-729.322326660,-5.212830067,0
2.276,-736.199768066,-9.403393745,0
2.278,-730.825988770,-3.134141922,0
2.280,-733.439270020,-4.470132351,0
2.282,-742.677124023,-10.661643028,0
2.284,-743.882324219,-9.229629517,0
2.286,-737.792114258,-2.441750526,0
2.288,-717.623840332,13.787116051,0
2.290,-714.620300293,13.059248924,0
2.292,-733.672241211,-4.660955906,0
2.294,-742.792968750,-10.718932152,0
2.296,-743.591796875,-8.958157539,0
2.298,-748.377075195,-10.689195633,0
2.300,-739.543395996,-1.443147659,0
2.302,-736.144653320,1.521009922,0
2.304,-751.646240234,-10.873651505,0
2.306,-745.240722656,-3.475192308,0
2.308,-738.642272949,2.429171801,0
2.310,-751.310424805,-7.963510513,0
2.312,-759.440490723,-12.517070770,0
2.314,-759.677124023,-9.919444084,0
2.316,-752.286010742,-1.966455698,0
2.318,-757.308410645,-5.435695648,0
2.320,-766.794372559,-11.605600357,0
2.322,-762.635314941,-5.791679859,0
2.324,-749.667419434,5.581444740,0
2.326,-748.924621582,4.918814659,0
2.328,-769.677490234,-12.315225601,0
2.330,-781.982543945,-19.148845673,0
2.332,-791.967468262,-22.659336090,0
2.334,-809.587158203,-31.327709198,0
2.336,-827.362487793,-38.190757751,0
2.338,-841.924011230,-41.029026031,0
2.340,-846.165222168,-35.209735870,0
2.342,-855.571166992,-34.700599670,0
2.344,-871.462524414,-39.348808289,0
2.346,-888.980712891,-44.229305267,0
2.348,-877.204650879,-25.241086960,0
2.350,-869.424072266,-13.580207825,0
2.352,-895.640319824,-30.952404022,0
2.354,-912.059936523,-36.844451904,0
2.356,-902.311401367,-21.074306488,0
2.358,-901.551940918,-15.800239563,0
2.360,-917.409912109,-24.622747421,0
2.362,-927.386474609,-26.910186768,0
2.364,-931.843444824,-24.396387100,0
2.366,-928.495666504,-16.370910645,0
2.368,-920.439819336,-6.467209339,0
2.370,-918.698791504,-3.675840139,0
2.372,-930.385437012,-11.948469162,0
2.374,-944.633361816,-20.374704361,0
2.376,-949.271057129,-19.453845978,0
2.378,-940.879150391,-8.603601456,0
2.380,-927.630004883,3.613147020,0
2.382,-928.322509766,2.271572113,0
2.384,-934.706176758,-3.198248386,0
2.386,-953.945800781,-17.451436996,0
2.388,-972.974670410,-28.373237610,0
2.390,-966.367431641,-16.928871155,0
2.392,-967.559020996,-14.093527794,0
2.394,-977.689697266,-18.840776443,0
2.396,-980.992187500,-17.222307205,0
2.398,-991.952575684,-21.919618607,0
2.400,-987.197875977,-13.350307465,0
2.402,-974.807067871,-0.746254623,0
2.404,-966.228637695,6.091602325,0
2.406,-959.624328613,9.874444962,0
2.408,-966.421203613,2.393662691,0
2.410,-973.918090820,-3.969114304,0
2.412,-980.369201660,-8.104528427,0
2.414,-981.167175293,-6.924057007,0
2.416,-971.692382813,1.983839393,0
2.418,-967.133422852,5.088781357,0
2.420,-978.800659180,-5.116491795,0
2.422,-987.446533203,-10.703940392,0
2.424,-991.288452148,-11.313263893,0
2.426,-994.775085449,-11.510882378,0
2.428,-988.196777344,-3.836434841,0
2.430,-984.054687500,0.237761006,0
2.432,-981.596862793,2.096535444,0
2.434,-991.466674805,-6.045811176,0
2.436,-1003.597717285,-14.137373924,0
2.438,-1002.735046387,-10.324616432,0
2.440,-1000.091979980,-5.974483013,0
2.442,-1004.016418457,-7.699041843,0
2.444,-1004.339538574,-6.239409447,0
2.446,-992.602722168,4.275712013,0
2.448,-1005.044372559,-6.351171970,0
2.450,-1016.784362793,-14.070745468,0
2.452,-1013.683837891,-8.532299995,0
2.454,-1010.296875000,-4.001866341,0
2.456,-1000.495056152,4.511027813,0
2.458,-999.944335938,3.936871767,0
2.460,-1011.756286621,-6.125014782,0
2.462,-1016.084106445,-8.129842758,0
2.464,-1016.850158691,-6.918944836,0
2.466,-1008.125976563,1.404064178,0
2.468,-1007.758666992,1.377720356,0
2.470,-1019.991943359,-8.443100929,0
2.472,-1028.535156250,-13.211383820,0
2.474,-1033.338500977,-14.011350632,0
2.476,-1032.447143555,-10.204279900,0
2.478,-1051.641845703,-22.865613937,0
2.480,-1056.373657227,-21.464323044,0
2.482,-1029.782958984,3.987090349,0
2.484,-1041.674926758,-6.148103714,0
2.486,-1060.757324219,-19.623455048,0
2.488,-1055.990478516,-11.555019379,0
2.490,-1066.559936523,-17.207683563,0
2.492,-1071.865722656,-17.510261536,0
2.494,-1060.688720703,-4.925801277,0
2.496,-1068.133789063,-9.621688843,0
2.498,-1082.254638672,-18.466211319,0
2.500,-1079.108154297,-11.915143013,0
2.502,-1071.227294922,-3.137708187,0
2.504,-1083.284301758,-11.818037033,0
2.506,-1090.460571289,-14.773130417,0
2.508,-1078.932373047,-2.523838282,0
2.510,-1065.366577148,8.588145256,0
2.512,-1052.749023438,16.493106842,0
2.514,-1061.088623047,6.341484547,0
2.516,-1078.116943359,-8.311868668,0
2.518,-1082.907714844,-10.190831184,0
2.520,-1079.882202148,-5.572926521,0
2.522,-1089.637573242,-11.921811104,0
2.524,-1111.532226563,-26.301397324,0
2.526,-1111.109252930,-20.127365112,0
2.528,-1095.131835938,-3.227731943,0
2.530,-1090.605102539,1.010372400,0
2.532,-1102.943237305,-8.810446739,0
2.534,-1111.988525391,-13.887539864,0
2.536,-1109.628173828,-8.965540886,0
2.538,-1118.184082031,-13.627536774,0
2.540,-1128.475585938,-18.603471756,0
2.542,-1127.129516602,-13.422291756,0
2.544,-1133.079101563,-15.066826820,0
2.546,-1137.270141602,-14.978076935,0
2.548,-1131.357788086,-7.051120281,0
2.550,-1136.751464844,-9.679141045,0
2.552,-1148.607788086,-16.749565125,0
2.554,-1152.154907227,-15.786082268,0
2.556,-1142.793334961,-4.996840000,0
2.558,-1137.862304688,-0.051119402,0
2.560,-1148.485595703,-8.302197456,0
2.562,-1149.697143555,-7.399475574,0
2.564,-1152.790527344,-8.161069870,0
2.566,-1165.596191406,-16.307233810,0
2.568,-1165.846313477,-12.877725601,0
2.570,-1168.584716797,-12.145791054,0
2.572,-1171.444213867,-11.670627594,0
2.574,-1170.607666016,-8.426353455,0
2.576,-1182.472778320,-15.782031059,0
2.578,-1198.067138672,-24.403530121,0
2.580,-1207.872436523,-26.606594086,0
2.582,-1220.627197266,-30.613956451,0
2.584,-1219.067504883,-22.597444534,0
2.586,-1202.435302734,-4.639633179,0
2.588,-1187.100585938,8.318307877,0
2.590,-1171.403564453,18.678319931,0
2.592,-1154.621826172,27.579744339,0
2.594,-1152.212524414,23.324485779,0
2.596,-1160.741821289,11.507262230,0
2.598,-1169.074462891,2.469113827,0
2.600,-1178.844970703,-5.678791046,0
2.602,-1172.624755859,0.421085745,0
2.604,-1161.538696289,8.949842453,0
2.606,-1171.244750977,-0.588124871,0
2.608,-1178.668945313,-6.231722355,0
2.610,-1183.359252930,-8.494786263,0
2.612,-1199.822753906,-19.411767960,0
2.614,-1204.654174805,-18.855590820,0
2.616,-1193.734497070,-6.172238827,0
2.618,-1183.691406250,3.010544062,0
2.620,-1178.634521484,6.274635315,0
2.622,-1178.728393555,4.807237625,0
2.624,-1192.294921875,-6.812736511,0
2.626,-1214.923217773,-22.898317337,0
2.628,-1227.194458008,-27.353683472,0
2.630,-1236.764526367,-28.718141556,0
2.632,-1221.433837891,-10.412303925,0
2.634,-1206.919067383,3.190726757,0
2.636,-1224.391601563,-11.107867241,0
2.638,-1245.394531250,-24.974777222,0
2.640,-1259.329101563,-30.262401581,0
2.642,-1257.709106445,-22.277200699,0
2.644,-1258.046752930,-17.589052200,0
2.646,-1260.847045898,-15.858165741,0
2.648,-1247.993652344,-2.336989164,0
2.650,-1260.054565430,-11.198225975,0
2.652,-1273.149414063,-18.894447327,0
2.654,-1251.191894531,2.382390499,0
2.656,-1243.788330078,7.611208439,0
2.658,-1256.720336914,-4.138341904,0
2.660,-1276.285522461,-18.435876846,0
2.662,-1293.048950195,-27.376852036,0
2.664,-1290.745971680,-19.501632690,0
2.666,-1289.786132813,-14.421255112,0
2.668,-1292.636962891,-13.433673859,0
2.670,-1297.431762695,-14.177518845,0
2.672,-1293.711914063,-8.133593559,0
2.674,-1280.523315430,3.931611061,0
2.676,-1282.246826172,1.717417955,0
2.678,-1298.609130859,-11.390346527,0
2.680,-1307.384887695,-15.684519768,0
2.682,-1305.185791016,-10.488548279,0
2.684,-1304.345336914,-7.503939629,0
2.686,-1311.309082031,-11.252564430,0
2.688,-1319.183593750,-14.876386642,0
2.690,-1328.385620117,-18.727373123,0
2.692,-1335.465576172,-20.072172165,0
2.694,-1332.749633789,-13.499105453,0
2.696,-1322.548828125,-2.565295696,0
2.698,-1323.583618164,-2.800011873,0
2.700,-1344.866821289,-18.731153488,0
2.702,-1379.988647461,-41.885074615,0
2.704,-1416.759399414,-61.176006317,0
2.706,-1434.198852539,-61.144599915,0
2.708,-1446.948608398,-57.472568512,0
2.710,-1465.019287109,-58.755142212,0
2.712,-1464.118408203,-44.997146606,0
2.714,-1470.005371094,-39.576019287,0
2.716,-1489.747436523,-46.135654449,0
2.718,-1504.953247070,-47.709419250,0
2.720,-1529.501953125,-56.200035095,0
2.722,-1506.905273438,-26.135654449,0
2.724,-1399.672241211,63.074943542,0
2.726,-1235.007446289,177.128585815,0
2.728,-990.968505859,327.570495605,0
2.730,-718.119323730,466.987030029,0
2.732,-439.337707520,580.034729004,0
2.734,-61.782234192,744.782714844,0
2.736,356.849304199,904.866027832,0
2.738,605.602539063,897.247802734,0
2.740,687.514343262,761.558654785,0
2.742,765.502014160,652.972045898,0
2.744,706.181274414,461.722747803,0
2.746,439.990936279,152.078811646,0
2.748,211.944198608,-59.085407257,0
2.750,50.234931946,-171.726959229,0
2.752,-123.425476074,-268.631134033,0
2.754,-288.009429932,-336.940704346,0
2.756,-470.693878174,-404.147644043,0
2.758,-653.475769043,-456.494842529,0
2.760,-806.950012207,-474.414245605,0
2.762,-925.331298828,-461.057159424,0
2.764,-1015.398376465,-428.646636963,0
2.766,-1095.735717773,-395.871307373,0
2.768,-1156.325195313,-355.020416260,0
2.770,-1208.136230469,-316.420318604,0
2.772,-1257.366821289,-284.391479492,0
2.774,-1296.536743164,-251.655578613,0
2.776,-1316.502685547,-211.258453369,0
2.778,-1311.177856445,-160.168579102,0
2.780,-1318.546752930,-130.305236816,0
2.782,-1342.292114258,-119.815513611,0
2.784,-1345.344604492,-95.562797546,0
2.786,-1351.358764648,-79.003227234,0
2.788,-1380.218383789,-83.892234802,0
2.790,-1400.895385742,-81.330635071,0
2.792,-1408.053100586,-68.823371887,0
2.794,-1413.997924805,-58.152282715,0
2.796,-1420.314819336,-50.142021179,0
2.798,-1434.634399414,-50.136161804,0
2.800,-1424.666503906,-31.241539001,0
2.802,-1408.406616211,-11.652243614,0
2.804,-1417.104736328,-15.827903748,0
2.806,-1420.031738281,-14.586911201,0
2.808,-1425.728393555,-15.775945663,0
2.810,-1442.080200195,-24.987941742,0
2.812,-1449.194213867,-24.967887878,0
2.814,-1450.468383789,-20.410169601,0
2.816,-1447.787353516,-13.789200783,0
2.818,-1452.140747070,-14.110712051,0
2.820,-1448.367309570,-8.039962769,0
2.822,-1444.541015625,-3.277259827,0
2.824,-1450.144775391,-6.907412529,0
2.826,-1450.553344727,-5.690129280,0
2.828,-1448.524047852,-2.847200632,0
2.830,-1456.822387695,-8.668643951,0
2.832,-1454.595336914,-5.010101795,0
2.834,-1446.447998047,2.440004587,0
2.836,-1455.364257813,-5.036983013,0
2.838,-1446.566772461,2.924813271,0
2.840,-1440.944213867,6.647895336,0
2.842,-1457.266601563,-7.524538994,0
2.844,-1467.246948242,-13.614789009,0
2.846,-1459.838867188,-4.827305317,0
2.848,-1452.777709961,1.737432480,0
2.850,-1466.766479492,-9.528704643,0
2.852,-1477.911132813,-16.079143524,0
2.854,-1480.029541016,-14.153439522,0
2.856,-1490.021240234,-18.779296875,0
2.858,-1485.981445313,-11.463932037,0
2.860,-1473.008178711,1.173922420,0
2.862,-1476.156738281,-1.535817742,0
2.864,-1484.725708008,-7.859167576,0
2.866,-1484.799194336,-6.169741631,0
2.868,-1481.302490234,-2.078995943,0
2.870,-1490.792480469,-8.998042107,0
2.872,-1496.920410156,-11.764421463,0
2.874,-1484.204833984,0.739765465,0
2.876,-1478.138183594,5.293822765,0
2.878,-1472.209960938,8.728127480,0
2.880,-1469.752807617,8.699585915,0
2.882,-1481.639526367,-2.478859186,0
2.884,-1496.362182617,-13.378773689,0
2.886,-1505.607788086,-17.596590042,0
2.888,-1502.510009766,-11.276691437,0
2.890,-1495.886840820,-3.619300604,0
2.892,-1491.214965820,0.818616152,0
2.894,-1489.155517578,2.238461494,0
2.896,-1499.991455078,-6.686831951,0
2.898,-1500.761474609,-5.799675465,0
2.900,-1491.823852539,2.440582514,0
2.902,-1492.174438477,1.625520110,0
2.904,-1502.014038086,-6.388640881,0
2.906,-1507.707885742,-9.397414207,0
2.908,-1506.033569336,-6.006714344,0
2.910,-1509.864624023,-7.651481628,0
2.912,-1500.485717773,1.343527436,0
2.914,-1496.416381836,4.209945679,0
2.916,-1506.385620117,-4.479392529,0
2.918,-1511.997558594,-7.848775387,0
2.920,-1509.411376953,-4.093018055,0
2.922,-1497.742553711,5.892242432,0
2.924,-1498.619873047,3.900387526,0
2.926,-1512.012207031,-7.382484436,0
2.928,-1511.642456055,-5.454270363,0
2.930,-1505.315551758,0.678673387,0
2.932,-1498.465942383,5.855207920,0
2.934,-1501.608398438,2.109952927,0
2.936,-1510.356445313,-5.162919521,0
2.938,-1498.795654297,4.976033211,0
2.940,-1500.819213867,2.296376467,0
2.942,-1518.338012695,-11.839550018,0
2.944,-1516.990356445,-8.160269737,0
2.946,-1517.904418945,-7.057635784,0
2.948,-1522.750122070,-9.258060455,0
2.950,-1521.744384766,-6.418375969,0
2.952,-1516.545654297,-0.948589325,0
2.954,-1520.826904297,-4.067615986,0
2.956,-1510.276855469,5.041820049,0
2.958,-1492.283447266,17.916063309,0
2.960,-1491.090332031,14.862443924,0
2.962,-1499.095214844,5.333655357,0
2.964,-1507.769042969,-2.597883701,0
2.966,-1516.906860352,-9.127660751,0
2.968,-1528.916503906,-16.439941406,0
2.970,-1519.700805664,-5.618798256,0
2.972,-1511.637817383,1.901071787,0
2.974,-1531.793945313,-14.198240280,0
2.976,-1540.527832031,-17.835876465,0
2.978,-1548.419921875,-20.010334015,0
2.980,-1558.166137695,-23.143724442,0
2.982,-1560.966796875,-20.178646088,0
2.984,-1566.526855469,-20.018793106,0
2.986,-1581.421997070,-27.154941559,0
2.988,-1597.000366211,-33.236545563,0
2.990,-1601.217163086,-29.130012512,0
2.992,-1598.305419922,-20.391735077,0
2.994,-1599.090576172,-16.470710754,0
2.996,-1605.145874023,-17.519979477,0
2.998,-1618.606689453,-24.095876694,0
3.000,-1627.598876953,-25.734838486,0
3.002,-1625.814086914,-18.627521515,0
3.004,-1619.073120117,-9.244952202,0
3.006,-1619.384643555,-7.432746410,0
3.008,-1622.156127930,-7.936525822,0
3.010,-1624.155761719,-7.728058815,0
3.012,-1631.286865234,-11.556924820,0
3.014,-1642.892578125,-18.015159607,0
3.016,-1643.782104492,-14.703437805,0
3.018,-1633.698974609,-3.593577623,0
3.020,-1629.644653320,0.358339280,0
3.022,-1642.870849609,-10.008188248,0
3.024,-1635.841674805,-2.316990614,0
3.026,-1622.818237305,8.327120781,0
3.028,-1633.418823242,-1.768160105,0
3.030,-1637.117065430,-4.251649857,0
3.032,-1636.987304688,-3.205842972,0
3.034,-1642.397094727,-6.701003075,0
3.036,-1644.594482422,-6.920889854,0
3.038,-1657.235229492,-15.214328766,0
3.040,-1661.273071289,-14.973738670,0
3.042,-1656.881469727,-8.230470657,0
3.044,-1667.346313477,-14.540560722,0
3.046,-1671.056030273,-14.194485664,0
3.048,-1672.343750000,-12.041558266,0
3.050,-1671.874633789,-9.000712395,0
3.052,-1664.920532227,-1.591733456,0
3.054,-1672.369995117,-7.031965256,0
3.056,-1675.978515625,-8.275815964,0
3.058,-1675.752563477,-6.260950565,0
3.060,-1686.676513672,-13.365843773,0
3.062,-1679.046630859,-4.461247921,0
3.064,-1665.097167969,7.379611015,0
3.066,-1670.868896484,1.250586987,0
3.068,-1672.815063477,-0.540991902,0
3.070,-1664.340942383,6.170086384,0
3.072,-1666.751953125,2.923705816,0
3.074,-1666.375366211,2.566888332,0
3.076,-1660.106811523,6.871872425,0
3.078,-1670.317626953,-2.596908569,0
3.080,-1680.684936523,-10.083201408,0
3.082,-1686.756713867,-12.564803123,0
3.084,-1700.623168945,-20.557329178,0
3.086,-1696.404418945,-12.707668304,0
3.088,-1669.580200195,10.979455948,0
3.090,-1656.485961914,18.723678589,0
3.092,-1667.125000000,6.288036346,0
3.094,-1679.512695313,-4.744143486,0
3.096,-1685.783813477,-8.567276955,0
3.098,-1688.510498047,-8.784132957,0
3.100,-1681.443481445,-1.335548162,0
3.102,-1678.513305664,1.240299463,0
3.104,-1676.372802734,2.629497766,0
3.106,-1668.100952148,8.478649139,0
3.108,-1671.097167969,4.264124870,0
3.110,-1678.127197266,-2.151294470,0
3.112,-1684.143310547,-6.352341175,0
3.114,-1693.189819336,-11.976660728,0
3.116,-1688.324707031,-5.531211376,0
3.118,-1684.709350586,-1.490021825,0
3.120,-1686.391235352,-2.467065573,0
3.122,-1679.780029297,3.223182201,0
3.124,-1688.146606445,-4.000291824,0
3.126,-1695.374267578,-8.732737541,0
3.128,-1682.195312500,3.458119154,0
3.130,-1668.857666016,13.063120842,0
3.132,-1672.681884766,7.185777187,0
3.134,-1675.181640625,3.644594193,0
3.136,-1674.028930664,3.731216669,0
3.138,-1676.168701172,1.237761378,0
3.140,-1673.706909180,2.877421856,0
3.142,-1674.165161133,1.881545663,0
3.144,-1680.020874023,-3.090953827,0
3.146,-1689.835449219,-10.037496567,0
3.148,-1693.535034180,-10.684342384,0
3.150,-1681.428222656,1.106399179,0
3.152,-1680.014892578,1.959794641,0
3.154,-1676.605102539,4.176252842,0
3.156,-1672.346801758,6.560088634,0
3.158,-1682.003295898,-2.408290386,0
3.160,-1679.385253906,0.163155541,0
3.162,-1676.625732422,2.273183346,0
3.164,-1678.426513672,0.367407262,0
3.166,-1676.021118164,2.156588793,0
3.168,-1682.832031250,-3.619997025,0
3.170,-1684.770996094,-4.323524952,0
3.172,-1677.611938477,2.205345392,0
3.174,-1676.674438477,2.444472551,0
3.176,-1685.019897461,-4.589632511,0
3.178,-1697.269897461,-13.097335815,0
3.180,-1702.832275391,-14.512882233,0
3.182,-1705.191528320,-13.122590065,0
3.184,-1719.048461914,-20.983873367,0
3.186,-1720.297363281,-17.291900635,0
3.188,-1702.628051758,0.293522865,0
3.190,-1697.205078125,4.446128368,0
3.192,-1707.785888672,-4.771409035,0
3.194,-1719.691406250,-12.970719337,0
3.196,-1713.608886719,-5.357441425,0
3.198,-1704.203613281,3.148256779,0
3.200,-1710.347412109,-2.329814911,0
3.202,-1715.960815430,-6.177948952,0
3.204,-1714.464477539,-3.641207933,0
3.206,-1710.025146484,0.620689094,0
3.208,-1709.845336914,0.622636378,0
3.210,-1713.775756836,-2.572645664,0
3.212,-1703.959472656,5.633811474,0
3.214,-1695.016845703,11.337059021,0
3.216,-1702.210815430,3.222367048,0
3.218,-1713.306884766,-6.123851776,0
3.220,-1718.381469727,-8.709828377,0
3.222,-1713.963867188,-3.338294029,0
3.224,-1706.540527344,3.177189589,0
3.226,-1704.890258789,3.754665375,0
3.228,-1709.892944336,-0.970707774,0
3.230,-1711.170898438,-1.748953581,0
3.232,-1707.901245117,1.182817340,0
3.234,-1712.935302734,-2.995449781,0
3.236,-1714.027832031,-3.179469585,0
3.238,-1706.219482422,3.600209713,0
3.240,-1700.006835938,7.632142067,0
3.242,-1697.332519531,8.016037941,0
3.244,-1710.612426758,-4.094118118,0
3.246,-1722.311523438,-12.283393860,0
3.248,-1724.886718750,-11.556545258,0
3.250,-1724.197143555,-8.452041626,0
3.252,-1717.546752930,-1.401199698,0
3.254,-1723.389404297,-5.634101868,0
3.256,-1734.305297852,-12.872009277,0
3.258,-1728.386718750,-5.408205509,0
3.260,-1723.482299805,-0.391809285,0
3.262,-1733.464721680,-8.068682671,0
3.264,-1747.510253906,-17.199720383,0
3.266,-1763.606445313,-25.896516800,0
3.268,-1766.699096680,-22.546854019,0
3.270,-1753.102172852,-6.960981846,0
3.272,-1728.476074219,13.739422798,0
3.274,-1711.609863281,23.804000854,0
3.276,-1706.780273438,22.270311356,0
3.278,-1691.117919922,29.502843857,0
3.280,-1678.750610352,32.565231323,0
3.282,-1678.739624023,25.336755753,0
3.284,-1671.075439453,25.667003632,0
3.286,-1675.641235352,16.411828995,0
3.288,-1687.012329102,3.920549154,0
3.290,-1694.821289063,-3.024242163,0
3.292,-1698.642211914,-5.323965073,0
3.294,-1688.078491211,4.075274467,0
3.296,-1681.467285156,8.311646461,0
3.298,-1680.957031250,6.861396790,0
3.300,-1679.718383789,6.299942017,0
3.302,-1686.749633789,-0.568835557,0
3.304,-1691.619140625,-4.229795456,0
3.306,-1690.395019531,-2.337652683,0
3.308,-1684.887084961,2.465770245,0
3.310,-1689.998657227,-2.057877779,0
3.312,-1701.452514648,-10.508964539,0
3.314,-1714.688964844,-18.468423843,0
3.316,-1727.253906250,-24.136734009,0
3.318,-1736.207885742,-25.736915588,0
3.320,-1738.836669922,-22.061876297,0
3.322,-1728.577392578,-9.179720879,0
3.324,-1717.605957031,1.393553019,0
3.326,-1718.659545898,0.264440298,0
3.328,-1715.259277344,2.850266933,0
3.330,-1716.350952148,1.367757678,0
3.332,-1717.361083984,0.278182894,0
3.334,-1709.179443359,6.579725742,0
3.336,-1707.251342773,6.617128372,0
3.338,-1715.827270508,-1.523489833,0
3.340,-1723.026733398,-6.784459591,0
3.342,-1736.757446289,-15.955973625,0
3.344,-1750.817993164,-23.345907211,0
3.346,-1747.009277344,-15.195371628,0
3.348,-1739.653320313,-6.097292423,0
3.350,-1739.089599609,-4.303818226,0
3.352,-1740.032714844,-4.080866337,0
3.354,-1744.566162109,-6.699921608,0
3.356,-1744.442016602,-5.114462376,0
3.358,-1743.051391602,-2.896288395,0
3.360,-1746.569091797,-4.988578320,0
3.362,-1746.044433594,-3.471943617,0
3.364,-1747.441772461,-3.787081480,0
3.366,-1752.359130859,-6.770066738,0
3.368,-1744.693115234,0.696796715,0
3.370,-1748.335205078,-2.290676594,0
3.372,-1749.583862305,-2.752779007,0
3.374,-1741.756103516,3.947146893,0
3.376,-1747.619262695,-1.490283251,0
3.378,-1745.041381836,0.845916152,0
3.380,-1747.226440430,-1.041483402,0
3.382,-1757.822998047,-9.051709175,0
3.384,-1773.569335938,-19.287181854,0
3.386,-1816.477294922,-48.373378754,0
3.388,-1848.013916016,-62.151393890,0
3.390,-1849.947265625,-49.843006134,0
3.392,-1862.049682617,-48.179138184,0
3.394,-1886.243896484,-56.289646149,0
3.396,-1896.306884766,-51.606952667,0
3.398,-1899.207031250,-42.393840790,0
3.400,-1903.268066406,-36.131088257,0
3.402,-1924.684082031,-44.758289337,0
3.404,-1949.595947266,-54.187252045,0
3.406,-1899.759033203,-3.383553028,0
3.408,-1774.283325195,94.959403992,0
3.410,-1569.755981445,232.931106567,0
3.412,-1287.176635742,400.947357178,0
3.414,-1021.030456543,518.843750000,0
3.416,-731.551208496,628.687500000,0
3.418,-334.099426270,798.097961426,0
3.420,49.667881012,919.216613770,0
3.422,263.519226074,881.263671875,0
3.424,361.179718018,761.375549316,0
3.426,399.027160645,621.609802246,0
3.428,247.864120483,365.898284912,0
3.430,-13.772867203,81.091072083,0
3.432,-199.801269531,-81.616859436,0
3.434,-359.664093018,-187.815093994,0
3.436,-531.608520508,-279.809295654,0
3.438,-709.672241211,-356.118896484,0
3.440,-895.477111816,-421.490753174,0
3.442,-1048.189941406,-446.596984863,0
3.444,-1190.189086914,-457.791076660,0
3.446,-1321.814453125,-458.429016113,0
3.448,-1423.441284180,-435.593353271,0
3.450,-1498.976928711,-397.539642334,0
3.452,-1567.184570313,-362.243133545,0
3.454,-1619.711425781,-322.594726563,0
3.456,-1642.950561523,-268.978393555,0
3.458,-1668.450073242,-229.035446167,0
3.460,-1683.186767578,-189.598083496,0
3.462,-1690.172119141,-152.896209717,0
3.464,-1702.757812500,-128.706466675,0
3.466,-1708.655883789,-104.691055298,0
3.468,-1724.550903320,-93.787933350,0
3.470,-1744.134033203,-88.176391602,0
3.472,-1754.058837891,-76.299880981,0
3.474,-1761.107788086,-64.826026917,0
3.476,-1764.489379883,-53.049762726,0
3.478,-1767.356811523,-43.490581512,0
3.480,-1764.419067383,-31.540609360,0
3.482,-1745.166992188,-9.557685852,0
3.484,-1731.615356445,3.106416941,0
3.486,-1742.035766602,-5.688656807,0
3.488,-1749.888549805,-10.532073021,0
3.490,-1746.553833008,-5.597865582,0
3.492,-1749.489990234,-6.637520790,0
3.494,-1753.010253906,-7.900381088,0
3.496,-1752.349365234,-5.630636215,0
3.498,-1750.996704102,-3.327255726,0
3.500,-1750.947387695,-2.549483299,0
3.502,-1755.124389648,-5.231585026,0
3.504,-1761.943359375,-9.372554779,0
3.506,-1754.110961914,-1.197931290,0
3.508,-1746.441284180,5.033537865,0
3.510,-1744.685302734,5.280668736,0
3.512,-1731.435668945,14.412283897,0
3.514,-1725.633056641,15.722438812,0
3.516,-1732.247924805,7.083602905,0
3.518,-1725.363037109,10.864262581,0
3.520,-1716.382934570,15.434285164,0
3.522,-1721.349365234,8.141525269,0
3.524,-1724.852294922,3.607787132,0
3.526,-1725.349609375,2.419205666,0
3.528,-1732.893066406,-3.985412836,0
3.530,-1749.846801758,-16.285810471,0
3.532,-1744.805664063,-8.745787621,0
3.534,-1722.410278320,10.616250992,0
3.536,-1713.010986328,15.567459106,0
3.538,-1712.106445313,12.811386108,0
3.540,-1718.042358398,5.347513199,0
3.542,-1724.296997070,-0.705517113,0
3.544,-1726.934204102,-2.599917650,0
3.546,-1712.465576172,9.231089592,0
3.548,-1705.285034180,12.764495850,0
3.550,-1711.639038086,4.985853672,0
3.552,-1705.427978516,8.708582878,0
3.554,-1701.210205078,10.053683281,0
3.556,-1705.342895508,4.605222702,0
3.558,-1702.906616211,5.476590157,0
3.560,-1690.217407227,14.128756523,0
3.562,-1680.344726563,18.667545319,0
3.564,-1677.485717773,16.742685318,0
3.566,-1678.827392578,11.978405952,0
3.568,-1683.561157227,5.634651184,0
3.570,-1684.851562500,3.378841639,0
3.572,-1681.641235352,5.124805450,0
3.574,-1685.300048828,1.140185952,0
3.576,-1669.756591797,12.975999832,0
3.578,-1658.330444336,18.979255676,0
3.580,-1667.569091797,7.575878143,0
3.582,-1656.517456055,14.487864494,0
3.584,-1648.122314453,17.797716141,0
3.586,-1655.059570313,8.446906090,0
3.588,-1651.416992188,9.402832031,0
3.590,-1647.996582031,9.973522186,0
3.592,-1654.386108398,2.787441015,0
3.594,-1647.210937500,7.748591900,0
3.596,-1641.167968750,10.726635933,0
3.598,-1642.960449219,6.948717594,0
3.600,-1642.478271484,5.779491425,0
3.602,-1637.859619141,8.087391853,0
3.604,-1620.627319336,19.692838669,0
3.606,-1607.086425781,25.848085403,0
3.608,-1619.314086914,10.593583107,0
3.610,-1637.218627930,-5.686295033,0
3.612,-1637.836914063,-4.903463840,0
3.614,-1624.944946289,6.213147163,0
3.616,-1620.999267578,7.901235104,0
3.618,-1626.338378906,1.992750764,0
3.620,-1620.617431641,5.999430656,0
3.622,-1613.662109375,10.075797081,0
3.624,-1608.615356445,11.761839867,0
3.626,-1611.145874023,7.179834843,0
3.628,-1621.460937500,-2.438467979,0
3.630,-1615.033325195,3.102649927,0
3.632,-1608.869750977,7.206980228,0
3.634,-1617.405639648,-1.033650279,0
3.636,-1610.698974609,4.412288189,0
3.638,-1603.653442383,8.911537170,0
3.640,-1614.857543945,-1.783069611,0
3.642,-1618.478637695,-4.203227043,0
3.644,-1611.031860352,2.522753477,0
3.646,-1596.999877930,12.875716209,0
3.648,-1587.038085938,17.762346268,0
3.650,-1596.792358398,6.228372097,0
3.652,-1607.427246094,-3.427229404,0
3.654,-1611.341430664,-5.709921360,0
3.656,-1612.115722656,-5.043196678,0
3.658,-1617.083618164,-7.786261082,0
3.660,-1625.919677734,-12.928340912,0
3.662,-1622.122436523,-7.101918221,0
3.664,-1622.184814453,-5.572115898,0
3.666,-1630.037841797,-10.441670418,0
3.668,-1632.290405273,-9.873106003,0
3.670,-1632.828125000,-8.097212791,0
3.672,-1640.656494141,-12.386401176,0
3.674,-1651.711059570,-18.231624603,0
3.676,-1657.507324219,-18.688100815,0
3.678,-1662.324340820,-18.281555176,0
3.680,-1669.825561523,-20.053020477,0
3.682,-1667.254272461,-13.596715927,0
3.684,-1658.674194336,-3.901810884,0
3.686,-1661.325317383,-5.096597195,0
3.688,-1672.345336914,-12.534983635,0
3.690,-1679.716308594,-15.482238770,0
3.692,-1678.986816406,-11.474180222,0
3.694,-1666.644897461,0.674898982,0
3.696,-1649.415161133,13.925591469,0
3.698,-1640.426879883,17.821691513,0
3.700,-1642.077636719,12.577239990,0
3.702,-1646.585693359,6.275891304,0
3.704,-1651.697265625,0.905602634,0
3.706,-1650.112182617,1.937178373,0
3.708,-1645.213012695,5.317055702,0
3.710,-1642.226806641,6.458007336,0
3.712,-1646.233032227,1.906977534,0
3.714,-1653.735107422,-4.351693630,0
3.716,-1658.298217773,-6.933675766,0
3.718,-1670.426269531,-14.825533867,0
3.720,-1668.279663086,-9.861285210,0
3.722,-1664.029663086,-4.364271641,0
3.724,-1665.815551758,-4.783449173,0
3.726,-1654.846069336,4.811323166,0
3.728,-1659.474121094,0.142547607,0
3.730,-1673.001464844,-10.410256386,0
3.732,-1665.367919922,-2.159615517,0
3.734,-1633.485839844,23.117177963,0
3.736,-1618.679199219,29.495885849,0
3.738,-1626.562622070,16.809490204,0
3.740,-1623.685668945,15.311435699,0
3.742,-1629.568115234,7.333626270,0
3.744,-1645.220458984,-6.470038414,0
3.746,-1644.786865234,-4.695000172,0
3.748,-1630.358032227,7.570666313,0
3.750,-1626.793945313,8.660304070,0
3.752,-1638.213623047,-2.146189690,0
3.754,-1636.830444336,-0.593456209,0
3.756,-1624.244140625,9.327691078,0
3.758,-1609.609130859,18.637397766,0
3.760,-1600.416503906,21.645265579,0
3.762,-1607.954833984,10.971955299,0
3.764,-1616.991088867,1.505511165,0
3.766,-1612.472778320,4.685170174,0
3.768,-1621.010131836,-2.996125460,0
3.770,-1621.852416992,-2.985399485,0
3.772,-1603.473022461,11.972916603,0
3.774,-1597.726562500,13.781557083,0
3.776,-1603.886352539,5.927988052,0
3.778,-1618.741577148,-6.943301678,0
3.780,-1628.738403320,-13.175454140,0
3.782,-1623.136474609,-5.890460968,0
3.784,-1623.518066406,-4.878260612,0
3.786,-1628.658325195,-7.792025089,0
3.788,-1625.612792969,-3.691659927,0
3.790,-1613.665161133,6.421204567,0
3.792,-1599.850097656,15.739131927,0
3.794,-1592.776611328,17.742847443,0
3.796,-1610.210205078,0.240555093,0
3.798,-1603.853027344,5.131566525,0
3.800,-1574.487915039,26.830362320,0
3.802,-1571.773559570,22.978967667,0
3.804,-1583.773071289,8.539402962,0
3.806,-1593.904785156,-1.238430977,0
3.808,-1595.560791016,-2.251186371,0
3.810,-1595.366088867,-1.599486947,0
3.812,-1600.333862305,-5.107783794,0
3.814,-1600.876586914,-4.394797325,0
3.816,-1598.749877930,-1.764038801,0
3.818,-1589.312133789,5.968371391,0
3.820,-1574.363037109,16.268945694,0
3.822,-1574.196289063,12.783140182,0
3.824,-1584.952392578,1.576520324,0
3.826,-1582.608642578,3.049092054,0
3.828,-1583.621704102,1.583572984,0
3.830,-1589.084838867,-3.017419577,0
3.832,-1573.374023438,9.872490883,0
3.834,-1578.301147461,3.846367121,0
3.836,-1602.122436523,-15.535874367,0
3.838,-1598.678222656,-9.404490471,0
3.840,-1575.765136719,10.506524086,0
3.842,-1565.343017578,16.277706146,0
3.844,-1566.036865234,12.120572090,0
3.846,-1569.647216797,6.618981838,0
3.848,-1567.438232422,6.866117001,0
3.850,-1564.383544922,7.716073036,0
3.852,-1580.607543945,-6.617241383,0
3.854,-1596.489257813,-17.498908997,0
3.856,-1592.267578125,-10.326637268,0
3.858,-1585.259399414,-2.580972910,0
3.860,-1578.230468750,3.459494591,0
3.862,-1570.400024414,8.780979156,0
3.864,-1564.340087891,11.542777061,0
3.866,-1559.445434570,12.784504890,0
3.868,-1552.182373047,15.592334747,0
3.870,-1548.508300781,14.984746933,0
3.872,-1553.291748047,7.934229374,0
3.874,-1546.580322266,11.390991211,0
3.876,-1523.664794922,26.682445526,0
3.878,-1524.210937500,20.327960968,0
3.880,-1538.433593750,4.748560905,0
3.882,-1541.698486328,1.153944969,0
3.884,-1551.126708984,-6.435462952,0
3.886,-1548.040649414,-2.605059147,0
3.888,-1532.864746094,9.777164459,0
3.890,-1541.904174805,0.573771536,0
3.892,-1542.529663086,-0.040196970,0
3.894,-1544.765258789,-1.770017982,0
3.896,-1568.867309570,-20.122434616,0
3.898,-1567.211181641,-14.362534523,0
3.900,-1535.996704102,13.106854439,0
3.902,-1533.542358398,12.103075027,0
3.904,-1547.269775391,-1.263368011,0
3.906,-1548.409423828,-1.869017720,0
3.908,-1553.557495117,-5.457631588,0
3.910,-1563.429565430,-11.923012733,0
3.912,-1562.663208008,-8.677254677,0
3.914,-1546.999877930,5.433558464,0
3.916,-1544.596801758,6.095037937,0
3.918,-1550.586303711,0.082121938,0
3.920,-1540.520141602,7.893044949,0
3.922,-1526.525878906,17.023241043,0
3.924,-1529.511474609,10.918003082,0
3.926,-1532.038574219,6.526104927,0
3.928,-1536.109497070,1.909594417,0
3.930,-1538.879760742,-0.669399619,0
3.932,-1534.342285156,3.008431911,0
3.934,-1532.366943359,3.876280546,0
3.936,-1532.536376953,2.883026600,0
3.938,-1532.994018555,1.886393785,0
3.940,-1533.474121094,1.093740821,0
3.942,-1545.505859375,-8.507192612,0
3.944,-1556.020751953,-14.794704437,0
3.946,-1544.743530273,-2.735875607,0
3.948,-1529.010131836,10.109054565,0
3.950,-1526.034057617,10.177253723,0
3.952,-1520.277099609,12.393136024,0
3.954,-1485.399047852,36.765930176,0
3.956,-1463.548950195,45.589649200,0
3.958,-1468.881347656,31.310831070,0
3.960,-1469.926269531,23.539802551,0
3.962,-1456.978515625,28.378868103,0
3.964,-1451.607910156,26.249256134,0
3.966,-1463.431884766,11.219529152,0
3.968,-1463.924194336,8.343268394,0
3.970,-1462.612060547,7.509686470,0
3.972,-1457.416503906,9.881674767,0
3.974,-1429.620605469,29.304399490,0
3.976,-1426.524536133,25.200103760,0
3.978,-1443.977294922,6.025556564,0
3.980,-1438.967163086,8.583209038,0
3.982,-1436.045410156,8.948186874,0
3.984,-1443.604858398,1.080123305,0
3.986,-1442.138061523,1.980925679,0
3.988,-1438.980346680,3.996663332,0
3.990,-1445.978149414,-2.334200859,0
3.992,-1443.730590820,-0.067350939,0
3.994,-1444.638427734,-0.758428454,0
3.996,-1454.106323242,-7.953749180,0
3.998,-1467.423461914,-16.543840408,0
4.000,-1472.710815430,-16.979557037,0
4.002,-1467.523925781,-9.171935081,0
4.004,-1462.513793945,-3.236973047,0
4.006,-1448.293212891,8.542704582,0
4.008,-1436.836425781,15.555009842,0
4.010,-1437.005615234,11.966589928,0
4.012,-1434.469238281,11.279946327,0
4.014,-1443.009765625,2.130619526,0
4.016,-1445.902465820,-0.592736125,0
4.018,-1441.774047852,2.749969006,0
4.020,-1452.417358398,-6.139239311,0
4.022,-1459.540161133,-10.314763069,0
4.024,-1459.733520508,-8.172882080,0
4.026,-1461.794921875,-7.959855556,0
4.028,-1449.932006836,3.035589457,0
4.030,-1430.193359375,17.713132858,0
4.032,-1424.096923828,18.518241882,0
4.034,-1428.464721680,11.005791664,0
4.036,-1425.908813477,10.547834396,0
4.038,-1436.175903320,0.218367010,0
4.040,-1440.899047852,-3.503625393,0
4.042,-1434.597045898,2.176463842,0
4.044,-1434.820434570,1.519056201,0
4.046,-1435.151489258,0.923984706,0
4.048,-1434.942138672,0.881422460,0
4.050,-1440.757568359,-3.837483168,0
4.052,-1445.187011719,-6.429755211,0
4.054,-1437.646118164,0.864251912,0
4.056,-1430.899291992,5.919572830,0
4.058,-1432.028686523,3.725656509,0
4.060,-1434.449707031,1.014695287,0
4.062,-1447.268920898,-9.181117058,0
4.064,-1465.947265625,-21.668243408,0
4.066,-1497.056762695,-41.048789978,0
4.068,-1541.344970703,-66.372329712,0
4.070,-1561.934448242,-67.636085510,0
4.072,-1566.324096680,-56.019290924,0
4.074,-1565.706542969,-43.089717865,0
4.076,-1567.746582031,-35.100456238,0
4.078,-1588.149780273,-43.168956757,0
4.080,-1591.423339844,-36.121486664,0
4.082,-1593.716430664,-29.877630234,0
4.084,-1620.425170898,-44.011039734,0
4.086,-1576.771728516,-0.278080851,0
4.088,-1441.117187500,105.291419983,0
4.090,-1245.080810547,234.363006592,0
4.092,-973.000854492,393.894958496,0
4.094,-689.510620117,526.848327637,0
4.096,-389.968505859,642.739807129,0
4.098,-0.941367209,802.474975586,0
4.100,362.751129150,907.007324219,0
4.102,553.420898438,853.737792969,0
4.104,641.534118652,732.541259766,0
4.106,699.907470703,615.147827148,0
4.108,583.582397461,387.968200684,0
4.110,312.609222412,90.994964600,0
4.112,92.183845520,-100.666793823,0
4.114,-49.489898682,-188.484634399,0
4.116,-181.532028198,-249.295364380,0
4.118,-343.460937500,-319.836944580,0
4.120,-519.150512695,-385.404510498,0
4.122,-669.374328613,-416.594390869,0
4.124,-807.833557129,-431.702789307,0
4.126,-932.826538086,-432.979980469,0
4.128,-1038.180297852,-418.698608398,0
4.130,-1111.138061523,-382.394409180,0
4.132,-1171.093261719,-344.045196533,0
4.134,-1219.624389648,-305.333190918,0
4.136,-1251.206542969,-262.041839600,0
4.138,-1276.819091797,-223.728317261,0
4.140,-1285.857421875,-181.038345337,0
4.142,-1292.593139648,-146.044631958,0
4.144,-1307.915039063,-125.505714417,0
4.146,-1312.842285156,-101.446479797,0
4.148,-1317.747070313,-82.716629028,0
4.150,-1327.233764648,-71.712730408,0
4.152,-1328.214233398,-56.538402557,0
4.154,-1329.932983398,-45.310543060,0
4.156,-1332.762939453,-37.442104340,0
4.158,-1334.567626953,-30.524929047,0
4.160,-1324.594848633,-15.984755516,0
4.162,-1332.614257813,-18.669710159,0
4.164,-1354.892578125,-31.848054886,0
4.166,-1347.944824219,-19.366628647,0
4.168,-1334.165893555,-4.345973492,0
4.170,-1340.342529297,-8.184053421,0
4.172,-1343.685424805,-8.965304375,0
4.174,-1344.561523438,-7.654314041,0
4.176,-1349.825073242,-10.047106743,0
4.178,-1354.822998047,-11.701569557,0
4.180,-1350.356445313,-5.627179623,0
4.182,-1342.907592773,1.416864634,0
4.184,-1344.857055664,-0.414227873,0
4.186,-1346.793212891,-1.828052402,0
4.188,-1341.776367188,2.480095148,0
4.190,-1342.218139648,1.585373402,0
4.192,-1345.158935547,-1.054249167,0
4.194,-1340.692871094,2.653661251,0
4.196,-1336.199096680,5.559023857,0
4.198,-1338.732177734,2.353513002,0
4.200,-1334.023681641,5.492587090,0
4.202,-1330.552490234,6.971708298,0
4.204,-1333.213989258,3.352344275,0
4.206,-1340.148315430,-2.785939455,0
4.208,-1339.310302734,-1.515044570,0
4.210,-1335.877197266,1.491853356,0
4.212,-1332.924682617,3.456607103,0
4.214,-1333.699951172,2.085518837,0
4.216,-1327.629028320,6.343746185,0
4.218,-1327.063232422,5.374033928,0
4.220,-1336.751098633,-3.355145693,0
4.222,-1328.035888672,4.168945313,0
4.224,-1310.204833984,17.110809326,0
4.226,-1305.157958984,17.233570099,0
4.228,-1306.438598633,12.407689095,0
4.230,-1311.645263672,5.600666046,0
4.232,-1319.469116211,-1.729065776,0
4.234,-1308.582275391,7.122613907,0
4.236,-1296.377319336,15.032330513,0
4.238,-1298.415039063,10.106821060,0
4.240,-1297.751708984,8.376705170,0
4.242,-1289.566772461,12.881107330,0
4.244,-1294.392333984,6.265264988,0
4.246,-1305.709960938,-3.929520607,0
4.248,-1292.725830078,7.042377949,0
4.250,-1272.143310547,21.485769272,0
4.252,-1279.063476563,11.328619957,0
4.254,-1285.626831055,3.706269026,0
4.256,-1286.547973633,2.166221142,0
4.258,-1291.715332031,-2.334192753,0
4.260,-1278.478881836,8.479372978,0
4.262,-1261.651855469,19.682518005,0
4.264,-1257.949584961,18.187942505,0
4.266,-1256.131713867,15.559904099,0
4.268,-1254.563354492,13.321770668,0
4.270,-1258.261352539,7.485110283,0
4.272,-1248.269653320,13.592907906,0
4.274,-1228.844482422,25.680309296,0
4.276,-1229.860473633,19.183145523,0
4.278,-1234.148925781,11.584625244,0
4.280,-1232.105224609,10.599639893,0
4.282,-1233.844726563,6.891143322,0
4.284,-1241.956420898,-0.949257135,0
4.286,-1231.834838867,7.133907318,0
4.288,-1218.291870117,16.081836700,0
4.290,-1223.967529297,8.093562126,0
4.292,-1228.975952148,2.399550676,0
4.294,-1226.621215820,3.697659492,0
4.296,-1234.091186523,-2.933952093,0
4.298,-1227.585205078,2.778197050,0
4.300,-1219.403686523,8.524102211,0
4.302,-1220.257202148,5.965970993,0
4.304,-1219.843139648,4.962150574,0
4.306,-1216.413574219,6.526839733,0
4.308,-1212.877075195,7.826952934,0
4.310,-1201.689575195,14.788781166,0
4.312,-1206.140991211,8.040107727,0
4.314,-1207.486328125,5.206941128,0
4.316,-1197.888793945,11.514439583,0
4.318,-1198.953735352,8.127294540,0
4.320,-1196.693115234,8.079368591,0
4.322,-1183.469116211,16.569107056,0
4.324,-1173.546630859,20.604244232,0
4.326,-1173.449584961,16.100872040,0
4.328,-1179.760620117,7.614223003,0
4.330,-1183.198608398,3.248102427,0
4.332,-1184.600708008,1.435745239,0
4.334,-1195.459960938,-7.329328537,0
4.336,-1210.998535156,-17.785856247,0
4.338,-1220.002929688,-20.836627960,0
4.340,-1214.049072266,-11.575329781,0
4.342,-1212.134887695,-7.514074802,0
4.344,-1221.726684570,-13.304466248,0
4.346,-1227.664672852,-14.966151237,0
4.348,-1231.841064453,-14.888412476,0
4.350,-1233.980590820,-13.243825912,0
4.352,-1231.306518555,-8.220759392,0
4.354,-1236.254150391,-10.241935730,0
4.356,-1252.697509766,-20.754987717,0
4.358,-1263.071411133,-24.211051941,0
4.360,-1258.490844727,-15.267947197,0
4.362,-1249.682006836,-5.023691177,0
4.364,-1255.391113281,-8.347585678,0
4.366,-1261.103149414,-10.935178757,0
4.368,-1251.953979492,-1.389103055,0
4.370,-1252.393310547,-1.422070265,0
4.372,-1259.606445313,-6.716185093,0
4.374,-1260.927734375,-6.251252651,0
4.376,-1260.522705078,-4.547042370,0
4.378,-1260.601562500,-3.597869158,0
4.380,-1260.961181641,-3.077998400,0
4.382,-1256.886230469,0.775351405,0
4.384,-1250.758789063,5.368774891,0
4.386,-1256.751098633,-0.484920382,0
4.388,-1258.022338867,-1.365921974,0
4.390,-1256.157836914,0.387782246,0
4.392,-1262.593017578,-4.703422546,0
4.394,-1252.393432617,4.274710178,0
4.396,-1231.777709961,19.358922958,0
4.398,-1235.093261719,12.478100777,0
4.400,-1248.349975586,-0.605604768,0
4.402,-1255.789672852,-6.257431507,0
4.404,-1267.383789063,-13.884276390,0
4.406,-1262.496704102,-6.997768879,0
4.408,-1248.288818359,5.607805729,0
4.410,-1254.745117188,-0.659931183,0
4.412,-1260.788818359,-5.213878155,0
4.414,-1248.516479492,5.489834309,0
4.416,-1235.312622070,14.539367676,0
4.418,-1229.704467773,15.670049667,0
4.420,-1224.449462891,16.274898529,0
4.422,-1226.114135742,11.363355637,0
4.424,-1239.357543945,-1.462245464,0
4.426,-1245.259765625,-5.727890491,0
4.428,-1243.288452148,-2.921759844,0
4.430,-1253.881225586,-10.511144638,0
4.432,-1258.330078125,-11.635343552,0
4.434,-1253.078979492,-4.965517044,0
4.436,-1249.734619141,-1.260877609,0
4.438,-1244.370361328,3.191520452,0
4.440,-1240.172363281,5.747304916,0
4.442,-1237.693481445,6.398060799,0
4.444,-1247.405029297,-2.577105999,0
4.446,-1258.247558594,-10.437424660,0
4.448,-1241.350830078,5.023888111,0
4.450,-1230.224731445,12.560932159,0
4.452,-1235.095458984,5.981170177,0
4.454,-1229.568237305,8.950886726,0
4.456,-1229.063964844,7.353891850,0
4.458,-1235.724365234,0.539338291,0
4.460,-1230.799072266,4.250253677,0
4.462,-1231.858886719,2.481400251,0
4.464,-1226.895996094,5.789987087,0
4.466,-1207.005371094,19.973533630,0
4.468,-1206.981079102,15.553604126,0
4.470,-1214.877319336,5.955665588,0
4.472,-1209.462158203,8.843863487,0
4.474,-1207.663452148,8.277443886,0
4.476,-1214.770385742,0.910407364,0
4.478,-1207.962158203,6.003283024,0
4.480,-1203.972778320,7.771990299,0
4.482,-1208.322021484,2.662075758,0
4.484,-1207.665283203,2.581288576,0
4.486,-1194.922119141,11.918866158,0
4.488,-1192.033325195,11.516923904,0
4.490,-1194.820556641,6.789632797,0
4.492,-1194.770996094,5.319377422,0
4.494,-1206.889160156,-5.287882805,0
4.496,-1205.686157227,-3.177112579,0
4.498,-1183.823974609,14.532691002,0
4.500,-1181.662963867,12.983771324,0
4.502,-1185.092651367,7.430831909,0
4.504,-1180.579345703,9.289778709,0
4.506,-1176.761352539,10.194832802,0
4.508,-1174.031738281,10.052180290,0
4.510,-1169.906738281,11.026556969,0
4.512,-1172.327026367,6.693708420,0
4.514,-1178.297729492,0.562354505,0
4.516,-1183.402954102,-3.533337116,0
4.518,-1188.718017578,-6.881989002,0
4.520,-1190.448364258,-6.698403358,0
4.522,-1180.473999023,2.547917604,0
4.524,-1165.703735352,13.469536781,0
4.526,-1170.127563477,7.035459518,0
4.528,-1186.729248047,-7.440284252,0
4.530,-1186.701538086,-5.765245914,0
4.532,-1184.397338867,-2.691878557,0
4.534,-1187.439941406,-4.460116863,0
4.536,-1177.958007813,3.905765295,0
4.538,-1178.419921875,2.678554296,0
4.540,-1192.418945313,-8.804693222,0
4.542,-1192.396728516,-6.830739975,0
4.544,-1182.598999023,2.307585001,0
4.546,-1190.707153320,-4.511446953,0
4.548,-1177.126708984,7.053592205,0
4.550,-1157.213134766,20.974159241,0
4.552,-1173.781372070,3.426826715,0
4.554,-1176.196166992,0.787050307,0
4.556,-1171.813598633,4.020781994,0
4.558,-1177.878295898,-1.589714289,0
4.560,-1174.971801758,1.024163008,0
4.562,-1173.967407227,1.577757239,0
4.564,-1174.026367188,1.181309581,0
4.566,-1165.231811523,7.758839607,0
4.568,-1169.083618164,3.038848400,0
4.570,-1173.055786133,-0.725923300,0
4.572,-1160.227539063,9.412760735,0
4.574,-1161.921508789,6.003400326,0
4.576,-1161.867065430,4.711591244,0
4.578,-1143.737548828,17.765121460,0
4.580,-1143.731323242,13.821948051,0
4.582,-1154.530883789,2.350720644,0
4.584,-1155.788208008,0.850447595,0
4.586,-1158.609619141,-1.532990217,0
4.588,-1157.861083984,-0.610097528,0
4.590,-1154.713745117,1.973369360,0
4.592,-1148.385009766,6.457123280,0
4.594,-1137.538818359,13.457923889,0
4.596,-1145.235717773,4.480755329,0
4.598,-1153.381713867,-2.850650072,0
4.600,-1151.773559570,-0.966456175,0
4.602,-1148.501708984,1.793131948,0
4.604,-1142.444946289,6.105383396,0
4.606,-1142.332763672,4.835793972,0
4.608,-1146.722656250,0.346796900,0
4.610,-1145.584716797,1.154776216,0
4.612,-1145.756469727,0.764549613,0
4.614,-1138.701049805,6.082141876,0
4.616,-1129.178833008,12.136616707,0
4.618,-1140.072998047,0.966315567,0
4.620,-1141.484375000,-0.346180499,0
4.622,-1140.137084961,0.778660178,0
4.624,-1152.502929688,-9.012165070,0
4.626,-1148.626831055,-3.994636059,0
4.628,-1151.427856445,-5.285461426,0
4.630,-1155.969604492,-7.643320084,0
4.632,-1151.316406250,-2.325616598,0
4.634,-1149.646484375,-0.509925246,0
4.636,-1145.183593750,3.074469805,0
4.638,-1150.739746094,-1.930203676,0
4.640,-1156.838623047,-6.244749069,0
4.642,-1158.931762695,-6.484894276,0
4.644,-1168.380737305,-12.392873764,0
4.646,-1157.061645508,-0.835202157,0
4.648,-1145.197631836,8.577887535,0
4.650,-1144.129028320,7.502745628,0
4.652,-1135.023681641,12.917220116,0
4.654,-1114.526977539,25.988241196,0
4.656,-1101.620971680,30.250728607,0
4.658,-1091.022827148,31.770908356,0
4.660,-1080.319702148,33.034992218,0
4.662,-1081.595825195,24.700977325,0
4.664,-1073.860107422,25.228244781,0
4.666,-1066.626586914,25.247642517,0
4.668,-1058.463867188,25.985515594,0
4.670,-1053.683959961,23.928415298,0
4.672,-1063.710327148,10.812546730,0
4.674,-1063.352050781,8.688287735,0
4.676,-1065.057617188,5.430897713,0
4.678,-1075.946166992,-4.244779110,0
4.680,-1066.504516602,4.041985035,0
4.682,-1053.841430664,12.992708206,0
4.684,-1055.764038086,8.609902382,0
4.686,-1060.271484375,3.190754890,0
4.688,-1062.081420898,1.073945999,0
4.690,-1066.433593750,-2.549677372,0
4.692,-1079.117187500,-11.847927094,0
4.694,-1079.851928711,-9.786430359,0
4.696,-1085.467773438,-11.979377747,0
4.698,-1098.216064453,-19.232379913,0
4.700,-1107.696777344,-22.332136154,0
4.702,-1111.026855469,-19.959228516,0
4.704,-1099.689697266,-6.705943108,0
4.706,-1084.162109375,6.861175060,0
4.708,-1072.414306641,14.473467827,0
4.710,-1073.691406250,10.263756752,0
4.712,-1085.721557617,-1.373861670,0
4.714,-1082.774536133,1.223523617,0
4.716,-1065.179443359,14.636550903,0
4.718,-1056.727783203,17.957221985,0
4.720,-1067.514282227,5.577157974,0
4.722,-1069.106811523,3.099138021,0
4.724,-1066.107910156,4.742841244,0
4.726,-1068.072631836,2.160728216,0
4.728,-1063.336059570,5.364459991,0
4.730,-1061.322265625,5.738647461,0
4.732,-1060.818237305,4.855288506,0
4.734,-1062.393798828,2.550899506,0
4.736,-1063.919067383,0.797704399,0
4.738,-1065.967285156,-0.972631216,0
4.740,-1070.213256836,-4.058876514,0
4.742,-1063.237304688,2.268836021,0
4.744,-1055.743041992,7.593389034,0
4.746,-1062.381591797,0.742661893,0
4.748,-1073.840820313,-8.334961891,0
4.750,-1074.972900391,-7.363142967,0
4.752,-1068.544555664,-0.727100432,0
4.754,-1062.115600586,4.434738159,0
4.756,-1064.911010742,1.275034904,0
4.758,-1073.953247070,-6.041070461,0
4.760,-1074.244750977,-4.925330639,0
4.762,-1083.445800781,-10.987015724,0
4.764,-1108.720214844,-28.202978134,0
4.766,-1138.528076172,-45.118991852,0
4.768,-1167.689819336,-57.773109436,0
4.770,-1182.321899414,-56.314384460,0
4.772,-1193.329345703,-52.360774994,0
4.774,-1188.742919922,-37.157375336,0
4.776,-1183.716064453,-24.990058899,0
4.778,-1209.607299805,-39.573810577,0
4.780,-1217.258544922,-36.730152130,0
4.782,-1216.806274414,-28.215732574,0
4.784,-1249.953002930,-47.725738525,0
4.786,-1241.204101563,-30.314979553,0
4.788,-1153.765991211,44.428585052,0
4.790,-1007.576293945,148.256713867,0
4.792,-763.599853516,305.066284180,0
4.794,-473.486511230,462.911468506,0
4.796,-192.872970581,578.289733887,0
4.798,175.642089844,736.394165039,0
4.800,599.646118164,902.520202637,0
4.802,893.714355469,930.667785645,0
4.804,1025.407104492,826.269653320,0
4.806,1104.300415039,704.006530762,0
4.808,1082.559204102,530.643981934,0
4.810,853.251281738,234.369384766,0
4.812,614.859741211,-3.128303289,0
4.814,465.810028076,-118.359123230,0
4.816,305.588775635,-216.670806885,0
4.818,143.293670654,-294.747436523,0
4.820,-15.505203247,-352.753662109,0
4.822,-191.884445190,-411.542480469,0
4.824,-358.802215576,-449.907684326,0
4.826,-489.926055908,-451.907531738,0
4.828,-606.200256348,-441.913360596,0
4.830,-701.959350586,-418.184265137,0
4.832,-758.666381836,-369.355133057,0
4.834,-802.117797852,-321.067596436,0
4.836,-852.934509277,-289.239562988,0
4.838,-882.821899414,-248.206649780,0
4.840,-897.434997559,-204.412704468,0
4.842,-914.394287109,-172.175964355,0
4.844,-929.599792480,-145.739288330,0
4.846,-940.889343262,-122.131958008,0
4.848,-944.081726074,-97.473220825,0
4.850,-949.951904297,-80.377113342,0
4.852,-952.947204590,-64.844390869,0
4.854,-955.218139648,-52.200126648,0
4.856,-970.686462402,-52.630336761,0
4.858,-983.135375977,-50.616523743,0
4.860,-990.804748535,-45.332916260,0
4.862,-1001.287536621,-43.411613464,0
4.864,-993.312500000,-27.561431885,0
4.866,-982.404907227,-12.952818871,0
4.868,-982.606445313,-10.231057167,0
4.870,-978.607788086,-4.847342491,0
4.872,-984.285095215,-8.185750008,0
4.874,-978.207214355,-1.639425755,0
4.876,-969.934692383,5.158992290,0
4.878,-977.227294922,-1.659427762,0
4.880,-979.260192871,-2.871778727,0
4.882,-984.397888184,-6.229490757,0
4.884,-979.346130371,-0.916022837,0
4.886,-958.558654785,15.455371857,0
4.888,-948.873718262,19.553308487,0
4.890,-954.498413086,10.833224297,0
4.892,-956.383666992,6.959446430,0
4.894,-950.988403320,9.609122276,0
4.896,-947.579833984,10.124741554,0
4.898,-951.542602539,4.792583942,0
4.900,-957.395996094,-0.825091898,0
4.902,-953.426391602,2.445697069,0
4.904,-938.338867188,13.636772156,0
4.906,-932.223571777,15.362524986,0
4.908,-946.488586426,0.853633642,0
4.910,-951.981201172,-3.608062267,0
4.912,-939.467407227,6.926592350,0
4.914,-926.526245117,15.452513695,0
4.916,-929.689819336,9.557906151,0
4.918,-925.041503906,11.049156189,0
4.920,-927.398071289,6.760834694,0
4.922,-936.927185059,-2.153111696,0
4.924,-931.902587891,2.233375072,0
4.926,-917.395263672,13.020371437,0
4.928,-919.826049805,8.236210823,0
4.930,-932.600524902,-3.529702902,0
4.932,-914.251892090,11.525688171,0
4.934,-897.119873047,22.289043427,0
4.936,-905.939575195,10.476015091,0
4.938,-907.083923340,7.257863998,0
4.940,-907.262878418,5.505750656,0
4.942,-910.082885742,2.088868856,0
4.944,-904.089233398,6.286356449,0
4.946,-902.557983398,6.080260277,0
4.948,-897.162109375,8.925758362,0
4.950,-897.798828125,6.446947575,0
4.952,-905.826721191,-1.229578972,0
4.954,-901.658386230,2.285671234,0
4.956,-897.209106445,5.238212109,0
4.958,-893.893554688,6.652830124,0
4.960,-889.077880859,8.919821739,0
4.962,-891.684875488,4.909905434,0
4.964,-883.026123047,10.553264618,0
4.966,-864.869812012,22.329389572,0
4.968,-867.385009766,15.410833359,0
4.970,-872.075927734,8.337635994,0
4.972,-871.247924805,7.128708363,0
4.974,-873.633422852,3.689124823,0
4.976,-864.632751465,9.869713783,0
4.978,-857.865905762,12.939360619,0
4.980,-855.979125977,11.531317711,0
4.982,-846.499023438,16.341978073,0
4.984,-837.832702637,19.450668335,0
4.986,-834.494628906,17.724328995,0
4.988,-831.712280273,15.949463844,0
4.990,-832.519348145,11.777248383,0
4.992,-836.643920898,5.952009201,0
4.994,-840.869201660,1.343001008,0
4.996,-841.215759277,0.774970591,0
4.998,-837.157897949,3.758824587,0
5.000,-829.365783691,8.983961105,0
5.002,-827.934997559,8.100277901,0
5.004,-837.049255371,-0.788669348,0
5.006,-839.940063477,-2.861752510,0
5.008,-827.294067383,7.609864712,0
5.010,-826.566894531,6.484266281,0
5.012,-823.796508789,7.197973251,0
5.014,-818.975341797,9.348099709,0
5.016,-823.416198730,3.816681147,0
5.018,-816.984558105,7.970812798,0
5.020,-803.851867676,16.413608551,0
5.022,-806.387451172,10.793881416,0
5.024,-809.338012695,6.100306511,0
5.026,-799.309509277,12.544442177,0
5.028,-790.499755859,16.608640671,0
5.030,-790.928955078,12.583834648,0
5.032,-805.618103027,-1.637453318,0
5.034,-803.558227539,0.328564584,0
5.036,-792.194763184,9.093675613,0
5.038,-794.940490723,4.937208652,0
5.040,-785.103027344,11.491262436,0
5.042,-787.075805664,7.403178692,0
5.044,-797.129760742,-2.061682224,0
5.046,-803.060058594,-6.215901852,0
5.048,-812.358398438,-12.066508293,0
5.050,-818.278503418,-13.989393234,0
5.052,-830.220642090,-20.168720245,0
5.054,-840.944763184,-24.027439117,0
5.056,-834.210876465,-13.450350761,0
5.058,-837.824218750,-13.271620750,0
5.060,-843.203796387,-14.506255150,0
5.062,-839.011291504,-8.021723747,0
5.064,-835.943298340,-3.852828741,0
5.066,-840.971679688,-6.907516479,0
5.068,-852.072265625,-14.006158829,0
5.070,-849.324707031,-8.756576538,0
5.072,-835.232360840,4.150005817,0
5.074,-839.674194336,-0.226981103,0
5.076,-855.380676270,-12.392512321,0
5.078,-861.799133301,-14.630563736,0
5.080,-860.240173340,-10.166660309,0
5.082,-847.617126465,1.910453558,0
5.084,-837.425170898,9.412877083,0
5.086,-831.615966797,11.839247704,0
5.088,-835.321655273,6.325997829,0
5.090,-845.878601074,-3.290676832,0
5.092,-836.228271484,4.946347713,0
5.094,-819.418029785,16.921546936,0
5.096,-817.412902832,14.720569611,0
5.098,-823.439025879,6.762252331,0
5.100,-831.027160645,-0.642319560,0
5.102,-832.162353516,-1.382491708,0
5.104,-822.516357422,6.427072048,0
5.106,-816.219970703,9.895875931,0
5.108,-826.453979492,-0.262989700,0
5.110,-832.956115723,-5.261672497,0
5.112,-828.173217773,-0.372368753,0
5.114,-820.946777344,5.330842972,0
5.116,-817.084899902,7.149836063,0
5.118,-819.605407715,3.600543261,0
5.120,-827.421508789,-3.278719425,0
5.122,-831.313842773,-5.577447414,0
5.124,-820.171203613,4.328445435,0
5.126,-812.856689453,9.055525780,0
5.128,-809.466308594,9.680027962,0
5.130,-798.428771973,16.113410950,0
5.132,-787.953430176,20.679870605,0
5.134,-793.586853027,11.702686310,0
5.136,-801.073669434,3.278922081,0
5.138,-804.914001465,-0.436632335,0
5.140,-804.082580566,0.307055116,0
5.142,-809.572082520,-4.030724049,0
5.144,-815.328491211,-7.612135887,0
5.146,-803.794311523,3.050462723,0
5.148,-783.524719238,18.137580872,0
5.150,-768.637207031,25.685819626,0
5.152,-778.425537109,12.364571571,0
5.154,-787.647766113,2.444033146,0
5.156,-771.506408691,14.455097198,0
5.158,-768.432495117,13.633514404,0
5.160,-775.098876953,5.418805599,0
5.162,-767.033203125,10.487807274,0
5.164,-761.208068848,12.687664032,0
5.166,-762.963928223,8.502384186,0
5.168,-764.952636719,5.066119194,0
5.170,-769.807250977,0.164513081,0
5.172,-766.206176758,2.928764343,0
5.174,-761.935424805,5.599530697,0
5.176,-765.749938965,1.388341784,0
5.178,-768.024169922,-0.688997209,0
5.180,-770.116088867,-2.162911415,0
5.182,-768.120300293,-0.129974365,0
5.184,-758.613952637,7.292634487,0
5.186,-753.694580078,9.498105049,0
5.188,-743.096923828,15.629839897,0
5.190,-742.279785156,12.791930199,0
5.192,-754.581848145,0.380960226,0
5.194,-756.141784668,-0.916960239,0
5.196,-746.127868652,7.075343609,0
5.198,-746.845947266,4.944480419,0
5.200,-753.511352539,-1.338518739,0
5.202,-760.925415039,-6.807454586,0
5.204,-757.391784668,-2.546297789,0
5.206,-744.977905273,7.674694538,0
5.208,-749.793151855,2.224018574,0
5.210,-751.310791016,0.549356401,0
5.212,-744.275756836,5.898934364,0
5.214,-742.273742676,6.145064354,0
5.216,-742.199340820,4.837336063,0
5.218,-748.317749023,-0.996391118,0
5.220,-756.816162109,-7.384754181,0
5.222,-761.851318359,-9.659806252,0
5.224,-756.368896484,-3.249044895,0
5.226,-753.990173340,-0.676899970,0
5.228,-752.606079102,0.550035238,0
5.230,-739.885559082,10.321419716,0
5.232,-733.195007324,13.231329918,0
5.234,-739.674316406,5.251534462,0
5.236,-741.733703613,2.482758045,0
5.238,-742.764648438,1.129153967,0
5.240,-739.468261719,3.442044497,0
5.242,-737.917419434,3.883309841,0
5.244,-736.704162598,3.963953018,0
5.246,-730.379028320,8.002504349,0
5.248,-733.702026367,3.639589548,0
5.250,-729.274169922,6.274578571,0
5.252,-722.431335449,10.202288628,0
5.254,-731.762268066,0.677703440,0
5.256,-720.842346191,9.020261765,0
5.258,-706.165466309,18.430904388,0
5.260,-712.131103516,9.695051193,0
5.262,-725.927856445,-3.190160513,0
5.264,-733.830688477,-8.627765656,0
5.266,-733.319519043,-6.312809467,0
5.268,-723.940612793,2.384679556,0
5.270,-714.498474121,9.198515892,0
5.272,-716.899169922,5.287123680,0
5.274,-726.594421387,-3.428493023,0
5.276,-729.130676270,-4.639180660,0
5.278,-729.153808594,-3.626196623,0
5.280,-712.254577637,10.323349953,0
5.282,-695.918212891,20.735050201,0
5.284,-694.744750977,17.039741516,0
5.286,-689.881408691,17.035511017,0
5.288,-689.019775391,13.919806480,0
5.290,-692.563171387,8.070430756,0
5.292,-694.723144531,4.596961975,0
5.294,-700.716735840,-1.086241961,0
5.296,-699.514038086,0.090589419,0
5.298,-695.556152344,3.148787498,0
5.300,-687.783142090,8.494607925,0
5.302,-673.102905273,18.024618149,0
5.304,-673.102233887,14.019495964,0
5.306,-682.121826172,3.888772011,0
5.308,-674.533386230,8.926589966,0
5.310,-678.167175293,4.116568089,0
5.312,-680.002868652,1.774014950,0
5.314,-666.863525391,11.599108696,0
5.316,-670.461730957,6.222838879,0
5.318,-674.136596680,1.981759310,0
5.320,-668.374511719,6.022880077,0
5.322,-670.166931152,3.290352106,0
5.324,-675.434875488,-1.538112640,0
5.326,-676.867004395,-2.310156822,0
5.328,-681.800659180,-5.633993149,0
5.330,-684.383117676,-6.390516758,0
5.332,-684.960449219,-5.419369698,0
5.334,-682.932983398,-2.638098955,0
5.336,-662.285095215,14.007412910,0
5.338,-648.812377930,21.373174667,0
5.340,-654.812927246,11.956341743,0
5.342,-663.530883789,2.518697500,0
5.344,-661.975219727,3.168896914,0
5.346,-657.733398438,5.763802052,0
5.348,-669.025085449,-4.299408436,0
5.350,-679.116516113,-11.192720413,0
5.352,-662.622802734,4.122967720,0
5.354,-656.734497070,7.786437988,0
5.356,-664.196899414,0.252028823,0
5.358,-662.787109375,1.292511582,0
5.360,-665.336242676,-0.977383256,0
5.362,-652.454650879,9.258732796,0
5.364,-639.115295410,17.576066971,0
5.366,-649.132629395,5.878917694,0
5.368,-661.791442871,-5.273193836,0
5.370,-662.302124023,-4.498513699,0
5.372,-652.264221191,4.308364868,0
5.374,-654.307495117,1.761742473,0
5.376,-663.377197266,-5.683921337,0
5.378,-664.448303223,-5.253823280,0
5.380,-672.667602539,-10.478954315,0
5.382,-678.129821777,-12.398559570,0
5.384,-668.068603516,-1.817911625,0
5.386,-656.090515137,7.902294159,0
5.388,-662.683227539,1.018530846,0
5.390,-661.766052246,1.505506158,0
5.392,-649.227966309,10.922677994,0
5.394,-642.391418457,13.812566757,0
5.396,-631.284423828,19.381628036,0
5.398,-620.844421387,23.194267273,0
5.400,-610.799560547,25.852336884,0
5.402,-588.568664551,37.397602081,0
5.404,-583.463745117,33.057048798,0
5.406,-591.033508301,19.823184967,0
5.408,-592.161499023,14.540527344,0
5.410,-602.181640625,3.515831470,0
5.412,-615.816894531,-7.870586872,0
5.414,-611.209838867,-2.538261652,0
5.416,-603.850158691,3.749941587,0
5.418,-596.610656738,8.547231674,0
5.420,-591.867065430,10.337174416,0
5.422,-588.346923828,10.777798653,0
5.424,-591.618041992,5.838433266,0
5.426,-596.401367188,0.820613861,0
5.428,-601.068115234,-2.991369724,0
5.430,-598.832519531,-0.587833345,0
5.432,-603.190734863,-3.846883535,0
5.434,-607.867431641,-6.629362106,0
5.436,-596.585083008,3.618973732,0
5.438,-598.641967773,1.214899898,0
5.440,-612.653015137,-9.952400208,0
5.442,-620.443054199,-13.799480438,0
5.444,-629.045959473,-17.423856735,0
5.446,-626.943908691,-11.916820526,0
5.448,-626.649841309,-9.039816856,0
5.450,-628.630249023,-8.571166992,0
5.452,-622.757629395,-2.098831892,0
5.454,-615.101928711,4.321949482,0
5.456,-610.360412598,7.049255848,0
5.458,-612.782043457,3.599213839,0
5.460,-602.480895996,10.811258316,0
5.462,-597.778320313,12.066158295,0
5.464,-610.769714355,-0.719623804,0
5.466,-616.334655762,-4.887907028,0
5.468,-627.445617676,-12.443408012,0
5.470,-633.434875488,-14.336318970,0
5.472,-619.099304199,-0.000584061,0
5.474,-617.453491211,1.279602170,0
5.476,-624.384948730,-4.395847321,0
5.478,-629.508056641,-7.403536797,0
5.480,-631.615905762,-7.397625923,0
5.482,-615.102722168,7.089760780,0
5.484,-610.341491699,9.217343330,0
5.486,-618.877807617,0.529661417,0
5.488,-622.581848145,-2.468936443,0
5.490,-619.447387695,0.517643750,0
5.492,-610.973266602,6.993513584,0
5.494,-605.463989258,9.724246979,0
5.496,-609.718200684,4.254405499,0
5.498,-610.081359863,3.026478052,0
5.500,-606.432312012,5.192034721,0
5.502,-618.550659180,-5.387063503,0
5.504,-634.522338867,-16.612169266,0
5.506,-659.848022461,-32.617904663,0
5.508,-708.710327148,-63.372642517,0
5.510,-746.990173340,-79.062026978,0
5.512,-761.033020020,-72.413986206,0
5.514,-764.659179688,-59.141567230,0
5.516,-772.931274414,-52.432151794,0
5.518,-795.472045898,-58.311489105,0
5.520,-786.731384277,-38.554626465,0
5.522,-775.604431152,-21.332363129,0
5.524,-825.279541016,-55.227279663,0
5.526,-822.980285645,-41.165737152,0
5.528,-725.880004883,43.504093170,0
5.530,-572.634948730,153.025131226,0
5.532,-310.749084473,322.704345703,0
5.534,-26.108648300,472.373168945,0
5.536,238.865371704,573.484802246,0
5.538,599.702758789,726.685607910,0
5.540,1014.875366211,888.100402832,0
5.542,1336.971557617,941.251770020,0
5.544,1475.969970703,840.183715820,0
5.546,1525.104248047,691.682739258,0
5.548,1496.759277344,515.922729492,0
5.550,1270.125244141,224.999404907,0
5.552,1042.616821289,-1.951412678,0
5.554,922.929626465,-94.606605530,0
5.556,750.885559082,-207.392288208,0
5.558,553.354370117,-314.936370850,0
5.560,373.689483643,-384.684875488,0
5.562,200.388565063,-433.983306885,0
5.564,39.167293549,-462.930908203,0
5.566,-117.003845215,-481.517547607,0
5.568,-242.863967896,-472.398712158,0
5.570,-337.096099854,-440.707183838,0
5.572,-415.153564453,-403.478363037,0
5.574,-460.389007568,-348.995086670,0
5.576,-497.315246582,-300.157165527,0
5.578,-533.793151855,-261.823883057,0
5.580,-560.965270996,-224.771728516,0
5.582,-573.652526855,-184.687896729,0
5.584,-582.308471680,-150.376617432,0
5.586,-599.962097168,-130.688491821,0
5.588,-616.542358398,-114.540885925,0
5.590,-624.295898438,-95.116622925,0
5.592,-630.478088379,-78.786933899,0
5.594,-648.974853516,-75.664146423,0
5.596,-665.946960449,-72.049461365,0
5.598,-667.162536621,-56.983188629,0
5.600,-665.462951660,-42.997825623,0
5.602,-678.090698242,-43.263755798,0
5.604,-677.178588867,-32.939735413,0
5.606,-663.330383301,-14.848770142,0
5.608,-671.034545898,-17.540929794,0
5.610,-681.645507813,-21.895671844,0
5.612,-686.762939453,-21.009891510,0
5.614,-695.013732910,-22.758028030,0
5.616,-700.454772949,-21.932294846,0
5.618,-701.371398926,-17.771152496,0
5.620,-709.773254395,-20.356559753,0
5.622,-716.565979004,-21.115829468,0
5.624,-705.604614258,-7.897791386,0
5.626,-697.583374023,0.095988497,0
5.628,-707.669982910,-7.770385742,0
5.630,-707.354003906,-5.797768593,0
5.632,-699.606506348,1.516436934,0
5.634,-709.042358398,-6.159471035,0
5.636,-716.958435059,-10.947504044,0
5.638,-714.049072266,-6.251836777,0
5.640,-715.383789063,-5.900558472,0
5.642,-716.214233398,-5.235142708,0
5.644,-714.083679199,-2.414642572,0
5.646,-726.206115723,-11.306506157,0
5.648,-729.407043457,-11.283408165,0
5.650,-717.113647461,0.785560668,0
5.652,-713.144592285,3.697997570,0
5.654,-711.583496094,4.090326786,0
5.656,-713.572082520,1.634661913,0
5.658,-726.029785156,-8.417783737,0
5.660,-728.778076172,-8.684644699,0
5.662,-727.070800781,-5.426777363,0
5.664,-726.861145020,-4.057693958,0
5.666,-729.117858887,-4.911129951,0
5.668,-732.170715332,-6.194148064,0
5.670,-738.779663086,-9.957834244,0
5.672,-736.051818848,-5.623234749,0
5.674,-724.718505859,4.441090107,0
5.676,-734.333679199,-4.024224758,0
5.678,-747.556030273,-13.413798332,0
5.680,-740.351379395,-4.829298973,0
5.682,-732.880126953,2.054826498,0
5.684,-733.136779785,1.398565173,0
5.686,-731.516357422,2.348051071,0
5.688,-739.286987305,-4.217480183,0
5.690,-751.764770508,-12.985038757,0
5.692,-760.071350098,-16.559932709,0
5.694,-757.967529297,-11.243523598,0
5.696,-742.500000000,3.285322666,0
5.698,-741.448913574,3.372697592,0
5.700,-746.260803223,-1.119333506,0
5.702,-737.758972168,5.741877556,0
5.704,-732.230529785,8.765684128,0
5.706,-730.775634766,7.949246407,0
5.708,-729.442993164,7.219136715,0
5.710,-733.376525879,2.555408001,0
5.712,-742.756713867,-5.308075428,0
5.714,-746.810119629,-7.281030655,0
5.716,-744.642028809,-3.976682425,0
5.718,-751.738342285,-8.612255096,0
5.720,-756.009399414,-10.020195961,0
5.722,-756.429443359,-8.120077133,0
5.724,-757.878845215,-7.442823410,0
5.726,-750.155334473,0.218293250,0
5.728,-754.427551270,-3.153028727,0
5.730,-764.150695801,-10.014676094,0
5.732,-767.740783691,-10.581339836,0
5.734,-771.943359375,-11.498462677,0
5.736,-769.505737305,-7.047219753,0
5.738,-765.403747559,-2.290716171,0
5.740,-768.076232910,-3.860215425,0
5.742,-765.604309082,-1.079735637,0
5.744,-762.668395996,1.443667293,0
5.746,-761.715393066,1.864072084,0
5.748,-765.296325684,-1.335365295,0
5.750,-772.432739258,-6.589035511,0
5.752,-777.353210449,-8.951756477,0
5.754,-786.051208496,-13.727410316,0
5.756,-781.032287598,-6.773172379,0
5.758,-769.118896484,3.997923136,0
5.760,-775.309753418,-1.705631614,0
5.762,-782.447937012,-6.878401756,0
5.764,-783.981689453,-6.542701244,0
5.766,-781.689941406,-3.306270599,0
5.768,-786.932678223,-6.649115086,0
5.770,-784.254516602,-3.088519335,0
5.772,-775.619018555,4.314295292,0
5.774,-782.653686523,-2.115854740,0
5.776,-798.070190430,-13.636075020,0
5.778,-801.748474121,-13.466577530,0
5.780,-793.388610840,-3.971810102,0
5.782,-799.668884277,-7.973759174,0
5.784,-807.073974609,-11.961146355,0
5.786,-814.914245605,-15.400890350,0
5.788,-835.534423828,-28.016067505,0
5.790,-843.587036133,-28.053050995,0
5.792,-849.866821289,-26.702936172,0
5.794,-866.275390625,-33.530754089,0
5.796,-875.402221680,-33.177688599,0
5.798,-881.860717773,-30.827726364,0
5.800,-880.077575684,-22.589939117,0
5.802,-885.607421875,-21.870670319,0
5.804,-902.435485840,-30.098611832,0
5.806,-915.630554199,-33.672435760,0
5.808,-923.606994629,-32.393161774,0
5.810,-922.113342285,-24.032632828,0
5.812,-922.151916504,-18.721824646,0
5.814,-927.935668945,-19.059644699,0
5.816,-921.981262207,-10.192803383,0
5.818,-921.576782227,-7.613040447,0
5.820,-932.842773438,-14.683496475,0
5.822,-938.997253418,-16.207107544,0
5.824,-945.917480469,-17.987709045,0
5.826,-953.794982910,-20.117111206,0
5.828,-953.679565430,-15.556670189,0
5.830,-955.940307617,-13.857802391,0
5.832,-963.792480469,-16.885347366,0
5.834,-968.488891602,-16.785591125,0
5.836,-972.237915039,-15.971161842,0
5.838,-977.846008301,-16.783618927,0
5.840,-973.018127441,-9.298785210,0
5.842,-971.316467285,-5.908807278,0
5.844,-977.625915527,-9.502977371,0
5.846,-984.044250488,-12.383076668,0
5.848,-995.613037109,-18.628990173,0
5.850,-999.950134277,-17.862293243,0
5.852,-984.778869629,-2.092972279,0
5.854,-982.935485840,-0.194146931,0
5.856,-992.243103027,-7.390132904,0
5.858,-995.920104980,-8.607669830,0
5.860,-998.449951172,-8.662406921,0
5.862,-1002.619812012,-9.980510712,0
5.864,-1001.486816406,-6.881326199,0
5.866,-1006.435668945,-9.201137543,0
5.868,-1014.827941895,-13.683584213,0
5.870,-1013.446044922,-9.567830086,0
5.872,-1011.243286133,-5.728337765,0
5.874,-1008.214538574,-2.099664688,0
5.876,-1014.874877930,-6.813225269,0
5.878,-1025.967895508,-13.926928520,0
5.880,-1028.708007813,-12.963036537,0
5.882,-1034.655151367,-14.707794189,0
5.884,-1049.787231445,-23.208463669,0
5.886,-1047.481567383,-16.257472992,0
5.888,-1043.645019531,-9.660645485,0
5.890,-1058.670288086,-19.199918747,0
5.892,-1074.133666992,-26.959947586,0
5.894,-1080.342895508,-25.797924042,0
5.896,-1079.448242188,-19.368970871,0
5.898,-1070.955810547,-8.459369659,0
5.900,-1066.462524414,-3.084763288,0
5.902,-1076.120361328,-9.910716057,0
5.904,-1074.874145508,-6.738979816,0
5.906,-1072.741455078,-3.582649231,0
5.908,-1072.018554688,-2.224243402,0
5.910,-1067.227905273,1.996061087,0
5.912,-1083.897949219,-11.412923813,0
5.914,-1096.657714844,-18.800695419,0
5.916,-1105.727783203,-21.676971436,0
5.918,-1118.338256836,-26.667724609,0
5.920,-1111.905761719,-15.738253593,0
5.922,-1115.209350586,-14.810169220,0
5.924,-1118.711547852,-14.242761612,0
5.926,-1119.937866211,-12.031368256,0
5.928,-1137.803100586,-23.252565384,0
5.930,-1152.404296875,-29.441507339,0
5.932,-1151.833984375,-22.455059052,0
5.934,-1161.124511719,-24.690683365,0
5.936,-1160.046875000,-18.365442276,0
5.938,-1147.927734375,-4.858220577,0
5.940,-1149.464721680,-4.973952770,0
5.942,-1162.732299805,-14.187658310,0
5.944,-1162.005615234,-10.469510078,0
5.946,-1167.098388672,-12.103850365,0
5.948,-1188.367675781,-25.956502914,0
5.950,-1200.881958008,-29.921379089,0
5.952,-1203.212890625,-25.084760666,0
5.954,-1212.836181641,-26.994825363,0
5.956,-1220.636108398,-27.062259674,0
5.958,-1233.252929688,-30.861141205,0
5.960,-1237.286010742,-27.139509201,0
5.962,-1225.885375977,-12.241239548,0
5.964,-1225.785034180,-9.442775726,0
5.966,-1229.602905273,-10.313744545,0
5.968,-1225.777099609,-5.046075821,0
5.970,-1231.356689453,-8.264283180,0
5.972,-1240.929809570,-13.873406410,0
5.974,-1253.563354492,-20.616235733,0
5.976,-1257.093872070,-18.780582428,0
5.978,-1259.096679688,-16.164630890,0
5.980,-1275.872192383,-25.619802475,0
5.982,-1283.866699219,-26.144044876,0
5.984,-1290.983520508,-25.869281769,0
5.986,-1296.683349609,-24.553445816,0
5.988,-1283.369384766,-8.741703987,0
5.990,-1280.147460938,-4.293042660,0
5.992,-1305.227661133,-22.845590591,0
5.994,-1322.026245117,-30.833925247,0
5.996,-1329.794433594,-30.023551941,0
5.998,-1338.187622070,-29.879259109,0
6.000,-1315.258911133,-5.405912399,0
6.002,-1304.459472656,4.194891930,0
6.004,-1321.165405273,-9.730635643,0
6.006,-1328.716308594,-13.441035271,0
6.008,-1339.767456055,-19.049238205,0
6.010,-1340.688476563,-15.532208443,0
6.012,-1331.027709961,-4.566675663,0
6.014,-1343.949340820,-13.601794243,0
6.016,-1358.700439453,-22.051929474,0
6.018,-1358.035888672,-16.634433746,0
6.020,-1362.149536133,-16.137199402,0
6.022,-1377.482421875,-24.476428986,0
6.024,-1382.995849609,-23.325124741,0
6.026,-1385.917114258,-20.413625717,0
6.028,-1379.994018555,-11.270249367,0
6.030,-1381.218017578,-9.717647552,0
6.032,-1391.546508789,-15.591181755,0
6.034,-1397.113647461,-16.456264496,0
6.036,-1400.149780273,-15.160600662,0
6.038,-1406.371215820,-16.630279541,0
6.040,-1414.639404297,-19.365198135,0
6.042,-1409.775024414,-11.278221130,0
6.044,-1412.715820313,-11.059132576,0
6.046,-1427.076049805,-19.770366669,0
6.048,-1429.923706055,-17.591501236,0
6.050,-1427.932739258,-12.133614540,0
6.052,-1434.719604492,-14.715763092,0
6.054,-1440.969360352,-16.306322098,0
6.056,-1442.800903320,-14.106987000,0
6.058,-1455.533569336,-20.875059128,0
6.060,-1455.807617188,-16.449115753,0
6.062,-1455.315429688,-12.410741806,0
6.064,-1459.778442383,-13.123894691,0
6.066,-1465.176025391,-14.405370712,0
6.068,-1482.800903320,-24.912103653,0
6.070,-1480.553222656,-17.627630234,0
6.072,-1464.605346680,-1.306473017,0
6.074,-1462.783203125,0.401020050,0
6.076,-1469.448852539,-4.872371197,0
6.078,-1472.912353516,-6.483345032,0
6.080,-1477.266357422,-8.429015160,0
6.082,-1486.899414063,-14.048040390,0
6.084,-1488.075195313,-11.840654373,0
6.086,-1481.260375977,-3.908888817,0
6.088,-1484.954833984,-5.913675308,0
6.090,-1493.906616211,-11.561858177,0
6.092,-1500.212890625,-13.897192955,0
6.094,-1501.476562500,-11.791711807,0
6.096,-1515.432250977,-20.025478363,0
6.098,-1536.941528320,-32.304328918,0
6.100,-1542.028320313,-29.081617355,0
6.102,-1539.872680664,-20.942214966,0
6.104,-1542.967529297,-18.695220947,0
6.106,-1540.787841797,-12.845212936,0
6.108,-1545.700439453,-13.811495781,0
6.110,-1547.313842773,-11.996978760,0
6.112,-1552.457763672,-13.331613541,0
6.114,-1563.084838867,-18.634302139,0
6.116,-1564.728637695,-15.771675110,0
6.118,-1570.038574219,-16.396572113,0
6.120,-1582.284423828,-22.277164459,0
6.122,-1585.546875000,-19.863931656,0
6.124,-1593.287353516,-21.469738007,0
6.126,-1592.988159180,-16.465780258,0
6.128,-1581.560058594,-3.918196678,0
6.130,-1589.780883789,-9.441322327,0
6.132,-1604.432250977,-18.738546371,0
6.134,-1593.950195313,-6.421564102,0
6.136,-1579.840332031,5.979669571,0
6.138,-1578.095825195,6.007665157,0
6.140,-1584.255004883,-0.117845632,0
6.142,-1578.632080078,4.281609058,0
6.144,-1570.810424805,9.413527489,0
6.146,-1569.113037109,8.641735077,0
6.148,-1571.137573242,5.146662712,0
6.150,-1583.298950195,-5.455808163,0
6.152,-1598.442138672,-16.021280289,0
6.154,-1602.578247070,-15.677706718,0
6.156,-1598.720825195,-9.193456650,0
6.158,-1602.552490234,-10.130521774,0
6.160,-1610.918334961,-14.385919571,0
6.162,-1609.884643555,-10.384873390,0
6.164,-1605.350952148,-4.550894260,0
6.166,-1606.661865234,-4.559082508,0
6.168,-1605.116088867,-2.343647003,0
6.170,-1599.829833984,2.288592339,0
6.172,-1611.451293945,-7.258807659,0
6.174,-1626.636352539,-17.456094742,0
6.176,-1637.822143555,-22.276739120,0
6.178,-1650.151489258,-26.915416718,0
6.180,-1657.627685547,-26.748750687,0
6.182,-1674.791870117,-34.153995514,0
6.184,-1680.694580078,-31.154884338,0
6.186,-1681.165893555,-24.597810745,0
6.188,-1686.854003906,-23.555362701,0
6.190,-1687.126708984,-18.532772064,0
6.192,-1692.371582031,-18.493455887,0
6.194,-1705.681274414,-24.735490799,0
6.196,-1709.981811523,-22.583263397,0
6.198,-1717.495239258,-23.408224106,0
6.200,-1727.373901367,-25.889493942,0
6.202,-1730.808593750,-22.807411194,0
6.204,-1741.265625000,-25.872016907,0
6.206,-1740.757080078,-19.726877213,0
6.208,-1721.506103516,-0.370099932,0
6.210,-1721.585815430,-0.349835485,0
6.212,-1732.676269531,-8.897941589,0
6.214,-1734.371337891,-8.238827705,0
6.216,-1737.090576172,-8.522830009,0
6.218,-1743.685913086,-11.758469582,0
6.220,-1747.518676758,-12.126362801,0
6.222,-1749.791870117,-11.199457169,0
6.224,-1754.007202148,-11.989139557,0
6.226,-1761.420776367,-15.090841293,0
6.228,-1761.033081055,-11.435648918,0
6.230,-1756.104980469,-5.061363220,0
6.232,-1760.697387695,-7.508311272,0
6.234,-1764.724609375,-8.972027779,0
6.236,-1774.018432617,-14.206585884,0
6.238,-1784.209594727,-18.975774765,0
6.240,-1782.576660156,-13.488681793,0
6.242,-1784.910278320,-12.306119919,0
6.244,-1817.651733398,-35.036502838,0
6.246,-1864.227783203,-63.475578308,0
6.248,-1902.947998047,-79.484619141,0
6.250,-1922.746337891,-77.219047546,0
6.252,-1926.849609375,-63.249904633,0
6.254,-1937.244384766,-57.278446198,0
6.256,-1949.447875977,-54.040821075,0
6.258,-1971.494873047,-59.178615570,0
6.260,-1978.968017578,-51.839588165,0
6.262,-1975.305908203,-37.470935822,0
6.264,-2012.449829102,-58.033012390,0
6.266,-2010.675415039,-43.756130219,0
6.268,-1918.516723633,37.645965576,0
6.270,-1758.021362305,154.107955933,0
6.272,-1485.012207031,332.197875977,0
6.274,-1199.831665039,480.176940918,0
6.276,-932.854064941,581.112670898,0
6.278,-558.289672852,743.294738770,0
6.280,-134.440658569,907.766662598,0
6.282,147.665588379,925.444702148,0
6.284,245.079299927,795.546203613,0
6.286,290.077636719,653.748413086,0
6.288,231.562484741,462.953186035,0
6.290,-11.665353775,170.895263672,0
6.292,-207.004562378,-19.011713028,0
6.294,-334.683746338,-114.091438293,0
6.296,-522.817321777,-235.060867310,0
6.298,-704.999267578,-324.517944336,0
6.300,-883.326416016,-391.096679688,0
6.302,-1073.001708984,-451.705657959,0
6.304,-1244.641113281,-484.817687988,0
6.306,-1393.446777344,-492.811737061,0
6.308,-1502.165893555,-467.851226807,0
6.310,-1570.184814453,-416.782470703,0
6.312,-1629.718261719,-370.463165283,0
6.314,-1690.008422852,-335.025970459,0
6.316,-1738.648681641,-298.403228760,0
6.318,-1780.478515625,-264.622283936,0
6.320,-1809.655395508,-228.507431030,0
6.322,-1825.665161133,-190.177627563,0
6.324,-1836.112426758,-156.039535522,0
6.326,-1851.087158203,-133.009353638,0
6.328,-1865.418579102,-114.596923828,0
6.330,-1861.496215820,-86.079116821,0
6.332,-1853.584960938,-60.796371460,0
6.334,-1867.470336914,-58.085063934,0
6.336,-1884.701660156,-58.578659058,0
6.338,-1893.689575195,-52.551128387,0
6.340,-1902.299804688,-47.569313049,0
6.342,-1910.563232422,-43.424888611,0
6.344,-1910.900878906,-34.037090302,0
6.346,-1906.274291992,-22.874502182,0
6.348,-1905.670410156,-17.321422577,0
6.350,-1911.778442383,-18.222667694,0
6.352,-1910.313598633,-13.033664703,0
6.354,-1910.822387695,-10.532860756,0
6.356,-1920.827026367,-15.973448753,0
6.358,-1929.588256836,-19.237823486,0
6.360,-1929.104614258,-14.586401939,0
6.362,-1927.125000000,-9.805139542,0
6.364,-1935.313842773,-13.995121956,0
6.366,-1949.705932617,-22.078737259,0
6.368,-1945.761352539,-14.104141235,0
6.370,-1946.125366211,-11.252811432,0
6.372,-1963.057006836,-21.920995712,0
6.374,-1957.797607422,-12.958812714,0
6.376,-1953.480102539,-6.720958710,0
6.378,-1954.769042969,-6.229872227,0
6.380,-1944.862670898,2.859542608,0
6.382,-1938.718139648,7.003065586,0
6.384,-1940.297241211,4.218513012,0
6.386,-1944.947021484,-0.335429698,0
6.388,-1954.427490234,-7.634488106,0
6.390,-1955.510620117,-6.780258656,0
6.392,-1952.450439453,-2.893379688,0
6.394,-1961.539916992,-9.319861412,0
6.396,-1967.144165039,-11.607436180,0
6.398,-1973.346801758,-13.852159500,0
6.400,-1979.791503906,-15.786251068,0
6.402,-1977.333618164,-10.366348267,0
6.404,-1974.710571289,-6.022453785,0
6.406,-1970.348144531,-1.291115642,0
6.408,-1964.299682617,3.700101852,0
6.410,-1968.447143555,-0.347926706,0
6.412,-1976.741821289,-6.721943855,0
6.414,-1976.345825195,-4.920151234,0
6.416,-1970.221313477,0.936741292,0
6.418,-1979.432983398,-6.435988903,0
6.420,-1990.686767578,-13.758508682,0
6.422,-1989.131591797,-9.491422653,0
6.424,-1984.536987305,-3.808551550,0
6.426,-1989.107421875,-6.516853333,0
6.428,-1993.506835938,-8.490387917,0
6.430,-1991.941284180,-5.385919094,0
6.432,-1981.632690430,3.828701496,0
6.434,-1968.491455078,13.198703766,0
6.436,-1978.767822266,2.272867918,0
6.438,-1995.863525391,-11.528669357,0
6.440,-1995.494262695,-8.679483414,0
6.442,-2005.598144531,-14.609093666,0
6.444,-2013.858398438,-17.787006378,0
6.446,-2008.464233398,-9.638761520,0
6.448,-2006.475830078,-5.950179577,0
6.450,-2007.335449219,-5.296505451,0
6.452,-2004.249511719,-1.719305634,0
6.454,-2007.797485352,-4.096724033,0
6.456,-2014.335083008,-8.271000862,0
6.458,-2026.928833008,-16.227952957,0
6.460,-2040.867187500,-23.462371826,0
6.462,-2034.402221680,-13.219966888,0
6.464,-2023.570312500,-1.857347369,0
6.466,-2020.214599609,1.165356278,0
6.468,-2020.326293945,0.819451928,0
6.470,-2014.191528320,5.408788204,0
6.472,-2009.479248047,7.871887207,0
6.474,-2012.068603516,4.108529568,0
6.476,-2021.451660156,-4.102327824,0
6.478,-2017.967773438,-0.481008679,0
6.480,-2015.462524414,1.574350715,0
6.482,-2018.486328125,-1.127319098,0
6.484,-2009.343750000,6.234011173,0
6.486,-2005.583496094,7.773215771,0
6.488,-2021.898071289,-6.643205643,0
6.490,-2023.597778320,-6.488813400,0
6.492,-2011.536010742,4.334441662,0
6.494,-2016.030151367,-0.124228388,0
6.496,-2017.917602539,-1.564573050,0
6.498,-2008.598266602,6.031420231,0
6.500,-2008.680664063,4.626922131,0
6.502,-1999.241699219,10.940004349,0
6.504,-2003.078247070,5.524799347,0
6.506,-2005.802978516,2.177801371,0
6.508,-2000.359619141,5.927544594,0
6.510,-2007.100219727,-0.632408857,0
6.512,-1988.531127930,13.950633049,0
6.514,-1957.729980469,34.806415558,0
6.516,-1966.927246094,19.917976379,0
6.518,-1984.283935547,1.992099762,0
6.520,-1993.783813477,-5.839295387,0
6.522,-1996.431396484,-6.600802898,0
6.524,-1996.258666992,-4.999560833,0
6.526,-2010.614135742,-15.053762436,0
6.528,-2015.697021484,-15.661593437,0
6.530,-2013.687988281,-10.618500710,0
6.532,-2025.751098633,-17.641061783,0
6.534,-2034.700317383,-20.681028366,0
6.536,-2042.209960938,-21.925773621,0
6.538,-2056.191650391,-27.927629471,0
6.540,-2059.905517578,-24.609813690,0
6.542,-2066.316894531,-24.127328873,0
6.544,-2078.503906250,-28.244142532,0
6.546,-2083.950683594,-26.203659058,0
6.548,-2090.347900391,-25.355911255,0
6.550,-2091.341796875,-20.493921280,0
6.552,-2087.639648438,-13.060178757,0
6.554,-2083.461181641,-6.907812595,0
6.556,-2079.148437500,-2.018396378,0
6.558,-2085.130615234,-6.222662449,0
6.560,-2099.096435547,-15.701908112,0
6.562,-2105.682128906,-17.334619522,0
6.564,-2098.276855469,-7.722742081,0
6.566,-2093.068603516,-1.955633402,0
6.568,-2099.366210938,-6.419137955,0
6.570,-2097.014648438,-3.163511515,0
6.572,-2086.526123047,5.697089195,0
6.574,-2092.961914063,-0.574647307,0
6.576,-2101.961181641,-7.446110725,0
6.578,-2105.844482422,-8.811784744,0
6.580,-2106.992919922,-7.746628284,0
6.582,-2107.943847656,-6.764679909,0
6.584,-2107.174316406,-4.662909985,0
6.586,-2107.148193359,-3.606279135,0
6.588,-2106.677246094,-2.438576698,0
6.590,-2106.875244141,-2.050749063,0
6.592,-2111.841796875,-5.457801819,0
6.594,-2106.741943359,-0.278333426,0
6.596,-2102.777587891,2.866909742,0
6.598,-2107.636230469,-1.549178958,0
