Time,Vin,RawSignal,Event
Verified data,Verified data,For Reference Only,For Reference Only
0.002,717.353454590,557.934326172,0
0.004,-4105.770996094,-3317.327148438,0
0.006,14302.310546875,11737.100585938,0
0.008,-32649.791015625,-27389.089843750,0
0.010,55529.175781250,47280.402343750,0
0.012,-62461.031250000,-54995.800781250,0
0.014,25653.523437500,25758.697265625,0
0.016,-21271.974609375,-16462.855468750,0
0.018,-2873.331787109,1505.593627930,0
0.020,-7695.322265625,-2579.386230469,0
0.022,-6985.055175781,-1453.740356445,0
0.024,-6993.297363281,-1137.082885742,0
0.026,-6995.691406250,-886.248107910,0
0.028,-7003.722656250,-695.541564941,0
0.030,-7011.196289063,-546.782775879,0
0.032,-7012.636718750,-426.390197754,0
0.034,-7015.466308594,-333.833282471,0
0.036,-7021.289062500,-264.173400879,0
0.038,-7022.119140625,-206.111083984,0
0.040,-7022.322265625,-160.464797974,0
0.042,-7023.837890625,-125.982810974,0
0.044,-7026.349609375,-99.939064026,0
0.046,-7027.247070313,-78.427505493,0
0.048,-7026.382324219,-60.325531006,0
0.050,-7024.409667969,-45.385208130,0
0.052,-7026.607910156,-37.008728027,0
0.054,-7028.803710938,-30.492204666,0
0.056,-7030.250000000,-24.840702057,0
0.058,-7029.063476563,-18.397380829,0
0.060,-7025.424804688,-11.478696823,0
0.062,-7023.768554688,-7.639554501,0
0.064,-7023.347167969,-5.614129066,0
0.066,-7025.106933594,-5.735095501,0
0.068,-7026.146484375,-5.269400120,0
0.070,-7027.082519531,-4.826316357,0
0.072,-7024.578125000,-1.805946469,0
0.074,-7025.125976563,-1.830804825,0
0.076,-7023.291015625,0.003499654,0
0.078,-7021.059570313,1.738303542,0
0.080,-7023.526855469,-0.566923559,0
0.082,-7027.292968750,-3.370229244,0
0.084,-7027.724121094,-2.956756353,0
0.086,-7027.873535156,-2.415692806,0
0.088,-7025.275878906,0.141466275,0
0.090,-7024.930664063,0.378441811,0
0.092,-7024.857910156,0.351162791,0
0.094,-7024.333007813,0.681386471,0
0.096,-7025.871582031,-0.667014122,0
0.098,-7028.778808594,-2.779858589,0
0.100,-7024.870605469,0.877703011,0
0.102,-7023.764160156,1.543194413,0
0.104,-7021.890625000,2.657324076,0
0.106,-7018.459472656,4.735323429,0
0.108,-7024.099121094,-0.703150213,0
0.110,-7026.895996094,-2.722086430,0
0.112,-7023.795898438,0.293909132,0
0.114,-7026.978515625,-2.246769428,0
0.116,-7031.942382813,-5.608225822,0
0.118,-7033.512695313,-5.583126068,0
0.120,-7033.394531250,-4.250549316,0
0.122,-7032.006835938,-2.226632833,0
0.124,-7033.713378906,-3.059078217,0
0.126,-7037.449218750,-5.285077572,0
0.128,-7039.884765625,-6.004545212,0
0.130,-7040.117675781,-4.851525307,0
0.132,-7042.269042969,-5.446425438,0
0.134,-7046.776367188,-7.741721630,0
0.136,-7046.288574219,-5.642128468,0
0.138,-7044.006835938,-2.613459110,0
0.140,-7045.025390625,-2.824807882,0
0.142,-7042.583007813,-0.297525108,0
0.144,-7040.204101563,1.618888974,0
0.146,-7040.181152344,1.277054071,0
0.148,-7044.201171875,-2.133601904,0
0.150,-7040.535156250,1.191974759,0
0.152,-7035.907226563,4.526451111,0
0.154,-7041.268066406,-0.648733079,0
0.156,-7046.112304688,-4.272260666,0
0.158,-7049.992187500,-6.340620518,0
0.160,-7049.191894531,-4.309089184,0
0.162,-7042.978027344,1.481519938,0
0.164,-7044.543945313,-0.065505460,0
0.166,-7046.560058594,-1.619154215,0
0.168,-7042.492187500,1.904513001,0
0.170,-7038.429199219,4.641289234,0
0.172,-7039.163574219,3.038841486,0
0.174,-7042.609375000,-0.316730291,0
0.176,-7042.346679688,-0.041863136,0
0.178,-7036.666503906,4.385041714,0
0.180,-7034.670410156,4.963225842,0
0.182,-7035.709472656,3.052079916,0
0.184,-7039.092773438,-0.257698447,0
0.186,-7047.280761719,-6.568765163,0
0.188,-7052.505371094,-9.172428131,0
0.190,-7048.231445313,-3.810021877,0
0.192,-7053.577148438,-7.120763779,0
0.194,-7051.221191406,-3.706228733,0
0.196,-7048.700195313,-0.921645820,0
0.198,-7052.717773438,-3.841512680,0
0.200,-7046.743164063,1.658859372,0
0.202,-7039.194335938,7.161611557,0
0.204,-7041.650390625,3.659605265,0
0.206,-7045.589843750,-0.217419952,0
0.208,-7050.803710938,-4.224442005,0
0.210,-7059.178710938,-9.799238205,0
0.212,-7055.401855469,-4.684138775,0
0.214,-7046.486328125,3.291012287,0
0.216,-7048.870605469,0.705303669,0
0.218,-7052.306152344,-2.123646736,0
0.220,-7049.532226563,0.505993068,0
0.222,-7047.435546875,2.024325609,0
0.224,-7053.006835938,-2.758842707,0
0.226,-7054.707519531,-3.468392611,0
0.228,-7050.320800781,0.714070082,0
0.230,-7051.096191406,-0.047651131,0
0.232,-7049.038085938,1.563848019,0
0.234,-7050.258789063,0.266660035,0
0.236,-7055.936523438,-4.208456516,0
0.238,-7054.718261719,-2.325660467,0
0.240,-7055.177734375,-2.166306019,0
0.242,-7064.017578125,-8.560340881,0
0.244,-7070.665039063,-11.828067780,0
0.246,-7072.004882813,-10.241649628,0
0.248,-7073.533691406,-9.154602051,0
0.250,-7074.134277344,-7.587215424,0
0.252,-7076.962402344,-8.100694656,0
0.254,-7078.615234375,-7.585951805,0
0.256,-7076.639160156,-4.363301754,0
0.258,-7074.700195313,-1.885451198,0
0.260,-7078.079589844,-4.094947338,0
0.262,-7080.009765625,-4.686173916,0
0.264,-7080.161132813,-3.762301445,0
0.266,-7083.728515625,-5.700998306,0
0.268,-7089.980468750,-9.296279907,0
0.270,-7090.438476563,-7.586756229,0
0.272,-7087.335937500,-3.487734795,0
0.274,-7083.045410156,0.624637425,0
0.276,-7079.329101563,3.376028776,0
0.278,-7086.415527344,-2.885753393,0
0.280,-7090.901855469,-5.733799458,0
0.282,-7094.697265625,-7.411633492,0
0.284,-7107.237304688,-15.517777443,0
0.286,-7121.884765625,-23.461244583,0
0.288,-7121.838867188,-18.211832047,0
0.290,-7115.619628906,-9.327360153,0
0.292,-7106.900390625,-0.473106116,0
0.294,-7084.530761719,17.030223846,0
0.296,-7066.409667969,27.339782715,0
0.298,-7055.236328125,29.954179764,0
0.300,-7045.783691406,30.649524689,0
0.302,-7046.039550781,23.638956070,0
0.304,-7047.193359375,17.488349915,0
0.306,-7051.260253906,10.438714027,0
0.308,-7062.207031250,-0.395231962,0
0.310,-7062.725097656,-0.710265279,0
0.312,-7060.694335938,1.027226448,0
0.314,-7064.507324219,-2.166631937,0
0.316,-7063.677734375,-1.040037155,0
0.318,-7060.855957031,1.385911703,0
0.320,-7060.275878906,1.528969765,0
0.322,-7061.942382813,-0.106870189,0
0.324,-7072.150878906,-8.023207664,0
0.326,-7077.493652344,-10.395480156,0
0.328,-7082.174804688,-11.726155281,0
0.330,-7088.676269531,-14.176739693,0
0.332,-7097.207519531,-17.661674500,0
0.334,-7107.823730469,-21.993543625,0
0.336,-7109.914550781,-18.732204437,0
0.338,-7102.648437500,-8.917864799,0
0.340,-7102.851562500,-7.094040394,0
0.342,-7107.071777344,-8.799807549,0
0.344,-7108.784667969,-8.176516533,0
0.346,-7113.145507813,-9.751193047,0
0.348,-7123.397460938,-15.557815552,0
0.350,-7130.775878906,-17.838899612,0
0.352,-7128.115234375,-11.805253029,0
0.354,-7123.239746094,-5.389869690,0
0.356,-7124.226074219,-4.959227562,0
0.358,-7127.714355469,-6.569877625,0
0.360,-7132.337402344,-8.705660820,0
0.362,-7127.183593750,-2.762382507,0
0.364,-7129.159179688,-3.685249329,0
0.366,-7137.597656250,-9.429384232,0
0.368,-7140.998535156,-9.978789330,0
0.370,-7137.516601563,-5.053092003,0
0.372,-7138.661621094,-4.820732594,0
0.374,-7143.395019531,-7.430760860,0
0.376,-7145.097656250,-7.103751183,0
0.378,-7146.374511719,-6.518167019,0
0.380,-7147.136718750,-5.662685394,0
0.382,-7148.727539063,-5.641308308,0
0.384,-7150.329101563,-5.633383274,0
0.386,-7152.582519531,-6.134199619,0
0.388,-7154.415039063,-6.196135521,0
0.390,-7148.644042969,-0.330492526,0
0.392,-7149.514160156,-0.933771551,0
0.394,-7152.787597656,-3.272265911,0
0.396,-7152.614257813,-2.410554409,0
0.398,-7156.552246094,-4.937626362,0
0.400,-7162.735839844,-8.649641037,0
0.402,-7172.352050781,-14.206693649,0
0.404,-7185.856445313,-21.552776337,0
0.406,-7197.222656250,-25.603200912,0
0.408,-7221.422851563,-38.735481262,0
0.410,-7257.760742188,-58.389717102,0
0.412,-7296.604003906,-75.624649048,0
0.414,-7321.415039063,-78.115539551,0
0.416,-7324.874023438,-63.445888519,0
0.418,-7315.434082031,-42.004222870,0
0.420,-7313.665039063,-31.293552399,0
0.422,-7333.839355469,-40.030147552,0
0.424,-7343.828613281,-38.903381348,0
0.426,-7347.177734375,-32.862800598,0
0.428,-7373.043945313,-45.677536011,0
0.430,-7341.555664063,-11.035722733,0
0.432,-7226.532714844,80.877754211,0
0.434,-7061.586914063,191.193756104,0
0.436,-6814.283691406,341.048736572,0
0.438,-6519.886718750,494.228881836,0
0.440,-6235.489746094,605.590087891,0
0.442,-5885.249023438,743.414489746,0
0.444,-5475.113769531,897.193725586,0
0.446,-5200.250000000,911.588439941,0
0.448,-5107.618164063,781.050109863,0
0.450,-5067.151367188,638.948974609,0
0.452,-5111.624023438,462.364654541,0
0.454,-5359.460449219,166.853286743,0
0.456,-5644.272949219,-91.745018005,0
0.458,-5820.306152344,-208.269332886,0
0.460,-5963.973144531,-273.724792480,0
0.462,-6101.579589844,-319.920013428,0
0.464,-6245.493164063,-360.754669189,0
0.466,-6407.041992188,-406.230834961,0
0.468,-6544.382324219,-422.772094727,0
0.470,-6666.649414063,-423.913726807,0
0.472,-6784.977050781,-421.737884521,0
0.474,-6877.598144531,-400.051727295,0
0.476,-6938.870117188,-358.802856445,0
0.478,-6985.654296875,-315.452362061,0
0.480,-7031.908203125,-281.323547363,0
0.482,-7074.763183594,-252.135421753,0
0.484,-7105.150878906,-219.737274170,0
0.486,-7121.444824219,-183.577545166,0
0.488,-7132.020507813,-151.006103516,0
0.490,-7141.290039063,-124.657470703,0
0.492,-7148.839843750,-102.826271057,0
0.494,-7153.536621094,-83.628028870,0
0.496,-7166.413085938,-75.058082581,0
0.498,-7183.541015625,-71.699340820,0
0.500,-7196.604980469,-65.926269531,0
0.502,-7205.313964844,-58.048843384,0
0.504,-7206.876953125,-46.363994598,0
0.506,-7208.327148438,-37.188575745,0
0.508,-7212.812988281,-32.412815094,0
0.510,-7212.744628906,-25.156496048,0
0.512,-7214.531738281,-20.955923080,0
0.514,-7217.480957031,-18.592548370,0
0.516,-7218.815917969,-15.499131203,0
0.518,-7219.936523438,-12.926065445,0
0.520,-7220.696289063,-10.644632339,0
0.522,-7221.299316406,-8.747874260,0
0.524,-7219.382324219,-5.312927723,0
0.526,-7221.217773438,-5.559585094,0
0.528,-7225.444824219,-7.611966133,0
0.530,-7224.571289063,-5.240926266,0
0.532,-7225.455566406,-4.764005661,0
0.534,-7229.139648438,-6.570508957,0
0.536,-7229.954101563,-5.743719101,0
0.538,-7225.659667969,-1.127217770,0
0.540,-7224.916992188,-0.299349934,0
0.542,-7223.246582031,1.066551805,0
0.544,-7220.491699219,2.972309828,0
0.546,-7222.677734375,0.611242890,0
0.548,-7225.084960938,-1.396574378,0
0.550,-7221.803710938,1.465827823,0
0.552,-7222.384765625,0.688201249,0
0.554,-7223.550781250,-0.371935874,0
0.556,-7220.392578125,2.167037964,0
0.558,-7221.242675781,1.024505138,0
0.560,-7223.507324219,-0.964660883,0
0.562,-7219.815917969,2.121010780,0
0.564,-7223.245605469,-1.017966390,0
0.566,-7222.140136719,0.068090007,0
0.568,-7214.758789063,5.793946266,0
0.570,-7217.034667969,2.735985518,0
0.572,-7214.907714844,3.782302141,0
0.574,-7213.632812500,3.933386326,0
0.576,-7213.733886719,2.980816126,0
0.578,-7215.244628906,1.143125296,0
0.580,-7218.510253906,-1.650663018,0
0.582,-7218.317871094,-1.134388804,0
0.584,-7212.106445313,3.949007273,0
0.586,-7208.263671875,6.059951305,0
0.588,-7205.027832031,7.230095863,0
0.590,-7208.959472656,2.565387487,0
0.592,-7216.316894531,-3.727211952,0
0.594,-7215.098144531,-1.950728416,0
0.596,-7215.230468750,-1.620060682,0
0.598,-7213.034667969,0.447451264,0
0.600,-7207.963378906,4.292626858,0
0.602,-7205.811035156,5.012409210,0
0.604,-7203.289550781,5.859845638,0
0.606,-7201.358398438,6.059507370,0
0.608,-7204.768066406,2.061101675,0
0.610,-7202.771484375,3.155591726,0
0.612,-7201.852050781,3.169628143,0
0.614,-7200.195312500,3.753612518,0
0.616,-7198.734863281,4.055554867,0
0.618,-7196.454589844,4.927584648,0
0.620,-7193.702636719,5.973146915,0
0.622,-7189.359375000,8.023737907,0
0.624,-7184.606445313,9.937085152,0
0.626,-7183.466796875,8.615194321,0
0.628,-7182.070800781,7.786464691,0
0.630,-7183.682128906,4.802810192,0
0.632,-7186.761718750,1.340224624,0
0.634,-7185.770996094,1.812830448,0
0.636,-7185.058593750,1.964096308,0
0.638,-7183.042480469,3.095906496,0
0.640,-7174.859863281,8.771837234,0
0.642,-7170.395019531,10.295145035,0
0.644,-7168.504882813,9.477432251,0
0.646,-7167.083496094,8.476607323,0
0.648,-7159.126464844,12.781467438,0
0.650,-7149.992187500,17.045621872,0
0.652,-7148.190917969,14.658146858,0
0.654,-7143.166992188,15.308346748,0
0.656,-7142.027343750,12.792510986,0
0.658,-7146.181640625,6.718843460,0
0.660,-7143.344726563,7.431802750,0
0.662,-7138.549316406,9.510231018,0
0.664,-7136.452148438,9.027808189,0
0.666,-7132.893554688,9.789376259,0
0.668,-7127.418945313,11.871684074,0
0.670,-7120.683593750,14.471920967,0
0.672,-7115.323730469,15.424662590,0
0.674,-7115.715332031,11.692016602,0
0.676,-7112.419433594,11.657385826,0
0.678,-7109.157714844,11.603269577,0
0.680,-7099.737792969,16.351337433,0
0.682,-7091.171386719,19.380123138,0
0.684,-7086.764648438,18.500564575,0
0.686,-7076.244140625,22.571800232,0
0.688,-7073.413085938,19.757410049,0
0.690,-7076.933593750,12.628660202,0
0.692,-7069.729492188,15.425423622,0
0.694,-7067.508300781,13.724914551,0
0.696,-7077.877441406,2.609819174,0
0.698,-7088.232910156,-6.024145603,0
0.700,-7098.489746094,-12.662899971,0
0.702,-7106.333496094,-15.949237823,0
0.704,-7113.694335938,-18.129924774,0
0.706,-7127.138183594,-24.557218552,0
0.708,-7142.315429688,-30.904180527,0
0.710,-7158.355957031,-36.511951447,0
0.712,-7169.778320313,-37.281780243,0
0.714,-7177.392089844,-34.918357849,0
0.716,-7184.291992188,-32.524784088,0
0.718,-7190.000000000,-29.736305237,0
0.720,-7202.579589844,-32.912017822,0
0.722,-7217.103027344,-36.893573761,0
0.724,-7229.747070313,-38.528957367,0
0.726,-7243.586425781,-40.730411530,0
0.728,-7251.664062500,-37.961105347,0
0.730,-7254.752441406,-31.927070618,0
0.732,-7257.735351563,-27.151899338,0
0.734,-7260.518554688,-23.282548904,0
0.736,-7262.543457031,-19.683408737,0
0.738,-7260.692382813,-13.869455338,0
0.740,-7265.059570313,-14.183875084,0
0.742,-7266.716796875,-12.320369720,0
0.744,-7265.056152344,-8.291031837,0
0.746,-7273.358886719,-12.905847549,0
0.748,-7278.351562500,-13.921051025,0
0.750,-7277.610351563,-10.250946045,0
0.752,-7277.506835938,-7.892288208,0
0.754,-7274.981445313,-4.174170971,0
0.756,-7265.839843750,3.863529205,0
0.758,-7267.336425781,1.840822101,0
0.760,-7267.440917969,1.350452542,0
0.762,-7265.397460938,2.639897346,0
0.764,-7269.963378906,-1.498104334,0
0.766,-7275.733398438,-5.653089523,0
0.768,-7279.327636719,-7.191921234,0
0.770,-7281.151855469,-7.012464523,0
0.772,-7275.898925781,-1.368778586,0
0.774,-7275.519531250,-0.769351184,0
0.776,-7277.341796875,-2.015700579,0
0.778,-7278.318359375,-2.327276230,0
0.780,-7286.783691406,-8.394029617,0
0.782,-7289.709960938,-8.804748535,0
0.784,-7278.469238281,1.894483447,0
0.786,-7275.602539063,3.703206062,0
0.788,-7272.660156250,5.168855667,0
0.790,-7271.040527344,5.279672623,0
0.792,-7277.893554688,-1.223418355,0
0.794,-7281.858886719,-4.035969257,0
0.796,-7280.792480469,-2.309374571,0
0.798,-7276.857421875,1.264441371,0
0.800,-7274.096191406,3.131052017,0
0.802,-7278.729003906,-1.168107033,0
0.804,-7281.377441406,-2.968580484,0
0.806,-7283.870605469,-4.248007298,0
0.808,-7284.413574219,-3.726237535,0
0.810,-7280.400390625,0.223503828,0
0.812,-7273.802734375,5.305200577,0
0.814,-7272.771484375,4.928125381,0
0.816,-7271.938964844,4.480420113,0
0.818,-7278.093261719,-1.301951528,0
0.820,-7287.073242188,-7.996951103,0
0.822,-7289.232421875,-7.898950100,0
0.824,-7286.902343750,-4.331270695,0
0.826,-7286.674804688,-3.191681385,0
0.828,-7282.220703125,0.981790781,0
0.830,-7280.210937500,2.326776505,0
0.832,-7270.633789063,9.258523941,0
0.834,-7263.303222656,12.902172089,0
0.836,-7271.951171875,3.308880568,0
0.838,-7281.104492188,-4.545522690,0
0.840,-7284.418945313,-6.113159657,0
0.842,-7283.712890625,-4.205719948,0
0.844,-7287.881347656,-6.512973785,0
0.846,-7288.100097656,-5.235731125,0
0.848,-7283.738281250,-0.679693758,0
0.850,-7288.120605469,-3.936914206,0
0.852,-7290.679687500,-5.052456856,0
0.854,-7286.782714844,-0.898766577,0
0.856,-7282.614257813,2.543173075,0
0.858,-7281.921875000,2.516491413,0
0.860,-7283.126464844,1.020341992,0
0.862,-7276.045898438,6.300427914,0
0.864,-7272.498535156,7.659289360,0
0.866,-7272.231933594,6.164759636,0
0.868,-7275.499023438,2.253723860,0
0.870,-7278.451660156,-0.543896735,0
0.872,-7279.313476563,-1.093365669,0
0.874,-7282.844238281,-3.596273899,0
0.876,-7278.077636719,0.910078347,0
0.878,-7271.326171875,5.959099293,0
0.880,-7271.591796875,4.428144455,0
0.882,-7266.807617188,7.164954185,0
0.884,-7270.616210938,2.610378265,0
0.886,-7277.628906250,-3.423902988,0
0.888,-7277.212402344,-2.338916540,0
0.890,-7274.821289063,0.040683132,0
0.892,-7270.921875000,3.064440250,0
0.894,-7269.467285156,3.514714479,0
0.896,-7266.894531250,4.734663486,0
0.898,-7261.146484375,8.153063774,0
0.900,-7262.780273438,5.070366859,0
0.902,-7266.107421875,1.355759025,0
0.904,-7275.194335938,-6.012808800,0
0.906,-7288.086914063,-14.704064369,0
0.908,-7286.120117188,-9.906808853,0
0.910,-7271.202148438,3.897655725,0
0.912,-7266.532714844,6.663400173,0
0.914,-7270.073730469,2.428325176,0
0.916,-7264.452636719,6.260531902,0
0.918,-7264.637695313,4.725305557,0
0.920,-7270.087402344,-0.563304186,0
0.922,-7270.088378906,-0.438966155,0
0.924,-7276.362304688,-5.220911026,0
0.926,-7280.695800781,-7.431363583,0
0.928,-7277.306152344,-3.143315554,0
0.930,-7279.850097656,-4.423434734,0
0.932,-7284.675781250,-7.193634987,0
0.934,-7284.286621094,-5.292189121,0
0.936,-7278.843261719,0.117368296,0
0.938,-7271.646484375,5.688866138,0
0.940,-7270.759765625,5.114009380,0
0.942,-7269.809570313,4.716689110,0
0.944,-7268.951171875,4.336158752,0
0.946,-7268.711914063,3.558589935,0
0.948,-7272.336914063,-0.051749997,0
0.950,-7280.329589844,-6.256498814,0
0.952,-7283.622558594,-7.427242756,0
0.954,-7285.735351563,-7.420049667,0
0.956,-7282.135742188,-2.971466780,0
0.958,-7268.234375000,8.501094818,0
0.960,-7267.065917969,7.520617008,0
0.962,-7273.587402344,0.776891291,0
0.964,-7277.972167969,-2.805915117,0
0.966,-7286.101074219,-8.504673958,0
0.968,-7291.565917969,-10.865240097,0
0.970,-7295.646484375,-11.624339104,0
0.972,-7290.512695313,-5.047992229,0
0.974,-7270.302246094,11.792827606,0
0.976,-7250.549804688,24.534812927,0
0.978,-7234.866210938,31.280565262,0
0.980,-7227.391601563,30.142581940,0
0.982,-7219.400390625,29.659103394,0
0.984,-7208.366699219,31.649675369,0
0.986,-7208.553222656,24.470792770,0
0.988,-7210.131835938,17.805130005,0
0.990,-7215.463867188,9.701006889,0
0.992,-7225.311035156,-0.113554612,0
0.994,-7222.379882813,2.191400051,0
0.996,-7215.343261719,7.177042484,0
0.998,-7208.569824219,10.850511551,0
1.000,-7206.589843750,9.979007721,0
1.002,-7202.891113281,10.637996674,0
1.004,-7199.122558594,11.205114365,0
1.006,-7204.921875000,4.204241276,0
1.008,-7205.850585938,2.547794819,0
1.010,-7205.334472656,2.383023739,0
1.012,-7219.628906250,-9.264294624,0
1.014,-7235.019531250,-19.175920486,0
1.016,-7238.807617188,-17.860498428,0
1.018,-7239.047851563,-14.078149796,0
1.020,-7238.784667969,-10.745105743,0
1.022,-7238.310546875,-7.988224030,0
1.024,-7237.831542969,-5.840460300,0
1.026,-7236.007812500,-3.123989820,0
1.028,-7234.375976563,-1.160683870,0
1.030,-7233.969238281,-0.586536884,0
1.032,-7236.593261719,-2.497081518,0
1.034,-7233.068359375,0.799391568,0
1.036,-7228.266601563,4.356635094,0
1.038,-7230.168457031,1.909136772,0
1.040,-7229.307128906,2.154807329,0
1.042,-7230.792968750,0.520365477,0
1.044,-7229.183593750,1.656550050,0
1.046,-7228.176757813,2.071201801,0
1.048,-7230.250000000,-0.001370175,0
1.050,-7228.591308594,1.288859129,0
1.052,-7227.412597656,1.919377804,0
1.054,-7227.746093750,1.233317375,0
1.056,-7225.266113281,2.887995720,0
1.058,-7226.349121094,1.403888941,0
1.060,-7227.270019531,0.375652611,0
1.062,-7222.066406250,4.339461327,0
1.064,-7222.572265625,2.981604576,0
1.066,-7223.818359375,1.349849463,0
1.068,-7224.817382813,0.272889495,0
1.070,-7226.792480469,-1.324027419,0
1.072,-7224.631835938,0.650945187,0
1.074,-7220.049316406,4.070082664,0
1.076,-7216.775390625,5.712224483,0
1.078,-7211.485839844,8.556753159,0
1.080,-7213.640625000,4.979097366,0
1.082,-7222.887695313,-3.319486618,0
1.084,-7227.966796875,-6.532204628,0
1.086,-7229.923828125,-6.602357864,0
1.088,-7236.474609375,-10.230349541,0
1.090,-7256.216308594,-23.311265945,0
1.092,-7291.358398438,-45.463150024,0
1.094,-7321.729003906,-58.980892181,0
1.096,-7334.322753906,-55.668365479,0
1.098,-7337.736328125,-45.951972961,0
1.100,-7332.686035156,-31.812244415,0
1.102,-7326.309570313,-19.783000946,0
1.104,-7327.275878906,-16.138296127,0
1.106,-7327.082519531,-12.401316643,0
1.108,-7318.057617188,-2.626112938,0
1.110,-7313.548339844,1.464815259,0
1.112,-7295.395507813,15.257639885,0
1.114,-7199.386230469,86.540122986,0
1.116,-7016.241210938,209.752212524,0
1.118,-6805.219238281,327.264404297,0
1.120,-6544.259277344,457.502044678,0
1.122,-6235.193847656,596.211303711,0
1.124,-5915.989257813,711.981079102,0
1.126,-5558.130371094,832.086853027,0
1.128,-5322.073730469,830.767395020,0
1.130,-5282.400390625,677.000610352,0
1.132,-5216.121582031,578.098754883,0
1.134,-5193.512695313,467.210968018,0
1.136,-5420.997070313,186.451889038,0
1.138,-5739.410156250,-102.635246277,0
1.140,-6002.732910156,-284.630279541,0
1.142,-6170.112304688,-351.558471680,0
1.144,-6232.095214844,-321.639373779,0
1.146,-6327.343261719,-324.241333008,0
1.148,-6467.460449219,-361.162963867,0
1.150,-6578.786621094,-367.486785889,0
1.152,-6664.738769531,-352.670135498,0
1.154,-6758.565917969,-347.271301270,0
1.156,-6850.312988281,-341.454223633,0
1.158,-6906.598632813,-309.349365234,0
1.160,-6944.308593750,-269.931640625,0
1.162,-6984.832519531,-241.462127686,0
1.164,-7015.752441406,-211.849807739,0
1.166,-7047.312988281,-189.316802979,0
1.168,-7077.809570313,-170.963806152,0
1.170,-7090.421386719,-142.779098511,0
1.172,-7093.574218750,-113.501060486,0
1.174,-7093.430175781,-88.165451050,0
1.176,-7098.404296875,-72.441047668,0
1.178,-7108.785156250,-64.416114807,0
1.180,-7110.140625000,-51.155174255,0
1.182,-7114.696777344,-43.330516815,0
1.184,-7122.833984375,-40.029754639,0
1.186,-7121.318359375,-29.955171585,0
1.188,-7120.933105469,-22.998327255,0
1.190,-7120.195800781,-17.313976288,0
1.192,-7119.945800781,-13.272037506,0
1.194,-7119.180175781,-9.726870537,0
1.196,-7122.125000000,-9.855711937,0
1.198,-7124.944335938,-9.858208656,0
1.200,-7127.431640625,-9.601914406,0
1.202,-7122.671386719,-3.765701771,0
1.204,-7121.037109375,-1.657682538,0
1.206,-7123.027832031,-2.837875605,0
1.208,-7123.539062500,-2.604623795,0
1.210,-7119.189941406,1.356690645,0
1.212,-7112.263671875,6.442438602,0
1.214,-7108.722167969,7.764925003,0
1.216,-7105.940429688,8.202892303,0
1.218,-7107.362792969,5.273883343,0
1.220,-7113.271484375,-0.493959874,0
1.222,-7113.612304688,-0.649232686,0
1.224,-7106.549316406,4.988502979,0
1.226,-7101.354492188,7.920158863,0
1.228,-7098.477539063,8.397745132,0
1.230,-7098.488769531,6.522731304,0
1.232,-7098.657226563,4.942317963,0
1.234,-7093.467773438,7.880159378,0
1.236,-7085.210449219,12.551015854,0
1.238,-7082.178710938,12.119774818,0
1.240,-7078.208496094,12.514135361,0
1.242,-7081.185546875,7.417757511,0
1.244,-7083.613769531,3.880571365,0
1.246,-7074.137695313,10.388399124,0
1.248,-7071.609375000,10.046260834,0
1.250,-7067.730468750,10.830497742,0
1.252,-7060.213378906,14.270171165,0
1.254,-7053.549316406,16.281965256,0
1.256,-7052.369628906,13.581383705,0
1.258,-7058.253417969,5.986809254,0
1.260,-7053.795898438,8.123242378,0
1.262,-7047.256347656,11.404100418,0
1.264,-7051.618164063,5.477512360,0
1.266,-7050.247070313,5.326671600,0
1.268,-7045.321777344,7.973659515,0
1.270,-7041.974609375,8.804988861,0
1.272,-7038.238281250,9.753872871,0
1.274,-7035.440917969,9.762194633,0
1.276,-7030.403320313,11.510574341,0
1.278,-7022.263183594,15.284020424,0
1.280,-7023.312500000,11.071069717,0
1.282,-7021.051269531,10.369602203,0
1.284,-7015.937500000,12.042470932,0
1.286,-7013.017578125,11.637142181,0
1.288,-7008.561523438,12.516871452,0
1.290,-7007.263183594,10.744972229,0
1.292,-7004.726562500,10.330099106,0
1.294,-7001.833007813,10.284667015,0
1.296,-6998.411621094,10.660152435,0
1.298,-6991.116210938,13.965222359,0
1.300,-6984.863281250,15.725197792,0
1.302,-6982.751953125,13.872636795,0
1.304,-6980.497070313,12.543395996,0
1.306,-6978.026855469,11.677131653,0
1.308,-6979.595214844,7.862449169,0
1.310,-6977.493164063,7.750065327,0
1.312,-6971.732421875,10.508295059,0
1.314,-6962.843261719,15.086438179,0
1.316,-6959.286621094,14.500115395,0
1.318,-6956.000000000,13.833869934,0
1.320,-6951.769531250,14.050062180,0
1.322,-6946.846679688,14.756278992,0
1.324,-6943.044433594,14.434359550,0
1.326,-6936.896484375,16.008008957,0
1.328,-6930.656738281,17.303604126,0
1.330,-6923.026855469,19.392429352,0
1.332,-6917.176269531,19.633296967,0
1.334,-6908.809570313,21.777759552,0
1.336,-6904.012207031,20.669235229,0
1.338,-6898.807617188,20.123590469,0
1.340,-6889.223632813,23.105676651,0
1.342,-6881.392089844,24.062105179,0
1.344,-6874.100097656,24.385931015,0
1.346,-6864.057617188,26.777481079,0
1.348,-6856.848632813,26.433507919,0
1.350,-6851.751464844,24.523401260,0
1.352,-6844.567382813,24.661205292,0
1.354,-6832.073730469,28.898035049,0
1.356,-6826.230957031,27.020078659,0
1.358,-6820.954589844,25.119249344,0
1.360,-6814.319824219,24.697229385,0
1.362,-6805.172851563,26.322786331,0
1.364,-6800.437988281,24.155820847,0
1.366,-6794.416503906,23.470804214,0
1.368,-6789.249511719,22.273433685,0
1.370,-6785.538574219,20.209964752,0
1.372,-6781.954589844,18.506286621,0
1.374,-6784.174804688,12.666624069,0
1.376,-6786.907226563,7.726373196,0
1.378,-6791.912109375,2.117001295,0
1.380,-6801.018554688,-5.436153889,0
1.382,-6811.043457031,-12.025263786,0
1.384,-6828.414550781,-22.863435745,0
1.386,-6851.275390625,-35.562885284,0
1.388,-6869.361328125,-41.726299286,0
1.390,-6884.306152344,-44.077068329,0
1.392,-6895.604492188,-43.069240570,0
1.394,-6910.030761719,-44.718055725,0
1.396,-6929.715820313,-50.090595245,0
1.398,-6942.208007813,-48.674953461,0
1.400,-6952.355957031,-45.750694275,0
1.402,-6958.738769531,-40.547565460,0
1.404,-6970.168945313,-40.426578522,0
1.406,-6983.504394531,-41.814441681,0
1.408,-6992.150878906,-39.246780396,0
1.410,-6999.310546875,-36.093662262,0
1.412,-7002.835449219,-30.814043045,0
1.414,-7004.371582031,-25.160951614,0
1.416,-7006.997070313,-21.611408234,0
1.418,-7013.719726563,-22.037250519,0
1.420,-7019.333984375,-21.506265640,0
1.422,-7020.828613281,-17.889585495,0
1.424,-7024.294921875,-16.609819412,0
1.426,-7028.669433594,-16.320808411,0
1.428,-7026.679687500,-11.146244049,0
1.430,-7029.703125000,-11.020691872,0
1.432,-7030.404296875,-9.116925240,0
1.434,-7024.422363281,-2.438591719,0
1.436,-7027.776855469,-4.505559921,0
1.438,-7028.599609375,-4.144025803,0
1.440,-7024.772460938,-0.246370122,0
1.442,-7022.820800781,1.326025128,0
1.444,-7021.223144531,2.274143696,0
1.446,-7023.898925781,-0.312656760,0
1.448,-7022.941406250,0.501851201,0
1.450,-7019.316894531,3.209247828,0
1.452,-7019.325195313,2.489445686,0
1.454,-7016.622558594,4.038497925,0
1.456,-7013.455566406,5.603901863,0
1.458,-7014.490234375,3.554018497,0
1.460,-7013.349121094,3.651828766,0
1.462,-7011.891113281,3.974291086,0
1.464,-7003.546875000,9.580634117,0
1.466,-7002.479492188,8.281714439,0
1.468,-7004.015136719,5.246832371,0
1.470,-7000.055175781,7.160813332,0
1.472,-6998.049804688,7.129128933,0
1.474,-6997.600585938,5.894432545,0
1.476,-6997.803222656,4.426661015,0
1.478,-6997.561523438,3.631167889,0
1.480,-7000.516601563,0.525758564,0
1.482,-6998.525390625,1.957636833,0
1.484,-6993.343261719,5.553143024,0
1.486,-6992.784667969,4.753507137,0
1.488,-6992.957031250,3.562857389,0
1.490,-6990.973632813,4.313694000,0
1.492,-6987.847167969,5.786868095,0
1.494,-6983.709472656,7.719060898,0
1.496,-6978.578613281,9.994217873,0
1.498,-6980.753417969,6.081417084,0
1.500,-6985.632812500,0.934911966,0
1.502,-6974.686523438,9.240964890,0
1.504,-6970.503417969,10.440871239,0
1.506,-6970.925292969,7.792240143,0
1.508,-6965.764160156,10.074944496,0
1.510,-6974.402832031,1.117004156,0
1.512,-6980.042968750,-3.517955065,0
1.514,-6974.652343750,1.456514001,0
1.516,-6973.926757813,1.697222590,0
1.518,-6968.152832031,5.810822010,0
1.520,-6963.071289063,8.471784592,0
1.522,-6961.317382813,7.953104019,0
1.524,-6962.569335938,5.211815357,0
1.526,-6964.052734375,2.899932861,0
1.528,-6957.692871094,7.202117920,0
1.530,-6956.286621094,6.695061684,0
1.532,-6956.114257813,5.341494083,0
1.534,-6954.813964844,5.165707111,0
1.536,-6956.472167969,2.728001595,0
1.538,-6954.178710938,3.905373812,0
1.540,-6951.579589844,5.059034348,0
1.542,-6953.314941406,2.584999561,0
1.544,-6949.533691406,4.951539993,0
1.546,-6945.128417969,7.277318478,0
1.548,-6938.638671875,10.707846642,0
1.550,-6938.388671875,8.522521019,0
1.552,-6942.393554688,3.513693333,0
1.554,-6940.865234375,3.921476603,0
1.556,-6934.477050781,8.018578529,0
1.558,-6933.906738281,6.680274963,0
1.560,-6933.270019531,5.690891266,0
1.562,-6926.185058594,9.936589241,0
1.564,-6923.157714844,10.082989693,0
1.566,-6920.746582031,9.717357635,0
1.568,-6922.055175781,6.540111542,0
1.570,-6924.613769531,3.096769094,0
1.572,-6930.010742188,-1.789156199,0
1.574,-6924.833007813,2.635535955,0
1.576,-6919.745605469,6.006673813,0
1.578,-6923.427734375,1.808026433,0
1.580,-6923.555175781,1.307201982,0
1.582,-6921.159179688,2.880060673,0
1.584,-6922.051757813,1.546005249,0
1.586,-6917.623535156,4.646524906,0
1.588,-6918.089355469,3.251454592,0
1.590,-6919.217285156,1.651719093,0
1.592,-6915.635253906,4.070402145,0
1.594,-6914.520019531,4.033498287,0
1.596,-6913.977050781,3.559466124,0
1.598,-6914.172363281,2.616524935,0
1.600,-6915.720214844,0.830971718,0
1.602,-6913.666992188,2.243289948,0
1.604,-6906.995605469,6.933372974,0
1.606,-6902.768554688,8.680512428,0
1.608,-6906.253906250,4.040533066,0
1.610,-6906.960937500,2.592566252,0
1.612,-6908.380859375,0.912244499,0
1.614,-6907.362304688,1.501453280,0
1.616,-6912.195800781,-2.591437578,0
1.618,-6913.030761719,-2.664816380,0
1.620,-6906.432128906,3.059555292,0
1.622,-6906.527343750,2.305549383,0
1.624,-6909.542968750,-0.552354991,0
1.626,-6906.757324219,1.737222910,0
1.628,-6910.486328125,-1.549259424,0
1.630,-6918.264160156,-7.254492283,0
1.632,-6918.458496094,-5.793238163,0
1.634,-6910.717773438,1.514605045,0
1.636,-6904.712890625,5.848426819,0
1.638,-6890.421386719,15.664188385,0
1.640,-6871.415039063,26.965539932,0
1.642,-6858.922363281,30.689247131,0
1.644,-6841.746582031,37.227909088,0
1.646,-6830.004882813,38.087123871,0
1.648,-6836.747070313,24.379163742,0
1.650,-6831.873535156,22.751499176,0
1.652,-6826.264648438,22.057901382,0
1.654,-6829.364746094,14.744749069,0
1.656,-6828.833496094,11.881188393,0
1.658,-6830.096191406,8.258646965,0
1.660,-6828.504882813,7.661078930,0
1.662,-6824.896484375,8.765059471,0
1.664,-6826.841796875,5.304264545,0
1.666,-6822.490234375,7.509737968,0
1.668,-6823.618164063,4.963836670,0
1.670,-6830.150878906,-1.220297337,0
1.672,-6830.826660156,-1.474544525,0
1.674,-6835.813476563,-5.025712013,0
1.676,-6846.135742188,-11.937075615,0
1.678,-6848.592773438,-11.195128441,0
1.680,-6854.273925781,-13.126016617,0
1.682,-6857.892578125,-13.023389816,0
1.684,-6854.222656250,-7.274888515,0
1.686,-6860.828125000,-10.795619965,0
1.688,-6865.111328125,-11.727958679,0
1.690,-6863.666503906,-7.997769833,0
1.692,-6861.424804688,-4.477050304,0
1.694,-6859.159667969,-1.720099807,0
1.696,-6858.934082031,-1.162580729,0
1.698,-6860.077148438,-1.793095827,0
1.700,-6861.503906250,-2.504338026,0
1.702,-6858.158691406,0.653884888,0
1.704,-6856.334472656,1.927564979,0
1.706,-6859.196777344,-0.727165997,0
1.708,-6856.101074219,1.842285991,0
1.710,-6851.081542969,5.336855888,0
1.712,-6852.597656250,2.971570969,0
1.714,-6858.471679688,-2.257186174,0
1.716,-6857.524414063,-1.019048691,0
1.718,-6858.924316406,-1.881348848,0
1.720,-6861.288574219,-3.301990747,0
1.722,-6856.181152344,1.404056072,0
1.724,-6851.623046875,4.637377739,0
1.726,-6855.182128906,0.838493705,0
1.728,-6855.844726563,0.136710316,0
1.730,-6854.296386719,1.310869217,0
1.732,-6856.289062500,-0.530359328,0
1.734,-6859.520996094,-2.926266193,0
1.736,-6857.666503906,-0.833492160,0
1.738,-6857.038574219,-0.160008967,0
1.740,-6855.004394531,1.457611442,0
1.742,-6852.739257813,2.895635605,0
1.744,-6856.298339844,-0.516190410,0
1.746,-6855.248535156,0.415284544,0
1.748,-6849.780761719,4.575283051,0
1.750,-6853.571289063,0.610717177,0
1.752,-6867.079101563,-10.031165123,0
1.754,-6881.865722656,-19.302305222,0
1.756,-6910.935546875,-37.622303009,0
1.758,-6948.221679688,-58.261425018,0
1.760,-6964.139160156,-57.693801880,0
1.762,-6967.809082031,-47.727058411,0
1.764,-6965.935546875,-35.663082123,0
1.766,-6950.986328125,-16.110664368,0
1.768,-6942.305175781,-5.778345108,0
1.770,-6945.134277344,-6.694889069,0
1.772,-6937.065429688,1.068884373,0
1.774,-6932.412597656,4.450023651,0
1.776,-6930.837402344,4.686120987,0
1.778,-6876.215820313,46.127597809,0
1.780,-6715.595703125,160.801986694,0
1.782,-6512.228027344,283.239257813,0
1.784,-6278.428710938,402.135925293,0
1.786,-5978.706054688,545.882934570,0
1.788,-5661.641601563,671.172485352,0
1.790,-5308.716796875,796.509887695,0
1.792,-5013.734863281,848.927001953,0
1.794,-4928.691406250,726.412170410,0
1.796,-4896.623535156,589.920959473,0
1.798,-4836.733886719,505.401763916,0
1.800,-4966.788574219,291.932922363,0
1.802,-5274.293945313,-12.111876488,0
1.804,-5569.076171875,-238.692245483,0
1.806,-5776.663574219,-347.101715088,0
1.808,-5879.141113281,-349.668212891,0
1.810,-5958.109375000,-333.379913330,0
1.812,-6088.379394531,-360.611907959,0
1.814,-6218.968750000,-382.040374756,0
1.816,-6310.927246094,-368.660919189,0
1.818,-6395.798339844,-352.742462158,0
1.820,-6488.230957031,-346.242919922,0
1.822,-6550.277343750,-317.554260254,0
1.824,-6591.030273438,-278.679656982,0
1.826,-6630.514160156,-247.457427979,0
1.828,-6659.030273438,-214.643081665,0
1.830,-6689.540039063,-190.672149658,0
1.832,-6721.540039063,-173.187026978,0
1.834,-6738.328125000,-147.756591797,0
1.836,-6747.423828125,-121.994705200,0
1.838,-6752.611328125,-98.918327332,0
1.840,-6759.332031250,-82.162300110,0
1.842,-6770.638183594,-72.696960449,0
1.844,-6770.350097656,-56.317214966,0
1.846,-6770.320800781,-43.778835297,0
1.848,-6777.797851563,-39.865425110,0
1.850,-6779.977050781,-32.700889587,0
1.852,-6785.119628906,-29.433233261,0
1.854,-6790.901855469,-27.389497757,0
1.856,-6789.240234375,-20.010303497,0
1.858,-6786.267578125,-13.251429558,0
1.860,-6782.827636719,-7.631210804,0
1.862,-6783.066406250,-6.120716095,0
1.864,-6785.772949219,-6.865572453,0
1.866,-6784.698242188,-4.504204273,0
1.868,-6787.724121094,-5.856526852,0
1.870,-6793.950195313,-9.397318840,0
1.872,-6791.116210938,-5.104822159,0
1.874,-6789.327636719,-2.579247952,0
1.876,-6789.882812500,-2.438091993,0
1.878,-6786.420410156,0.796723962,0
1.880,-6785.433593750,1.387189627,0
1.882,-6785.260253906,1.214017391,0
1.884,-6783.962890625,1.952967405,0
1.886,-6774.075683594,9.209199905,0
1.888,-6768.796875000,11.268288612,0
1.890,-6775.227050781,3.762734652,0
1.892,-6775.704101563,2.555587769,0
1.894,-6774.961914063,2.564764500,0
1.896,-6775.526367188,1.556005478,0
1.898,-6772.095703125,3.878194094,0
1.900,-6763.997070313,9.315524101,0
1.902,-6762.972656250,8.041748047,0
1.904,-6761.624023438,7.303515911,0
1.906,-6755.655761719,10.322388649,0
1.908,-6756.278808594,7.543988705,0
1.910,-6752.836914063,8.544273376,0
1.912,-6747.932128906,10.460288048,0
1.914,-6748.137207031,7.976426601,0
1.916,-6744.588378906,8.963969231,0
1.918,-6746.475097656,5.504305840,0
1.920,-6744.307128906,5.967409134,0
1.922,-6735.022460938,11.862495422,0
1.924,-6736.261230469,8.262643814,0
1.926,-6733.253417969,8.765793800,0
1.928,-6730.495605469,8.962689400,0
1.930,-6734.467773438,3.881561756,0
1.932,-6734.840332031,2.729025602,0
1.934,-6733.979492188,2.792348146,0
1.936,-6728.143554688,6.710837841,0
1.938,-6717.026367188,13.866024017,0
1.940,-6718.817871094,9.390924454,0
1.942,-6723.416015625,3.727863789,0
1.944,-6725.724121094,1.104211807,0
1.946,-6721.123046875,4.437235832,0
1.948,-6710.071777344,12.046463013,0
1.950,-6705.269042969,13.104745865,0
1.952,-6703.418457031,11.631989479,0
1.954,-6697.571777344,13.594312668,0
1.956,-6696.475097656,11.425971031,0
1.958,-6696.426269531,8.924781799,0
1.960,-6694.808105469,8.200239182,0
1.962,-6693.716308594,7.227048874,0
1.964,-6687.610351563,10.369803429,0
1.966,-6680.695800781,13.443046570,0
1.968,-6679.644042969,11.273749352,0
1.970,-6676.783691406,10.993120193,0
1.972,-6672.470214844,11.904730797,0
1.974,-6668.564941406,12.296584129,0
1.976,-6666.052246094,11.518243790,0
1.978,-6664.226074219,10.378747940,0
1.980,-6658.005859375,12.910447121,0
1.982,-6651.786132813,14.878500938,0
1.984,-6642.715332031,18.627323151,0
1.986,-6636.030761719,19.686782837,0
1.988,-6631.564941406,18.785015106,0
1.990,-6628.227539063,17.206056595,0
1.992,-6627.325195313,14.084037781,0
1.994,-6625.155273438,12.641683578,0
1.996,-6620.809570313,13.212515831,0
1.998,-6611.864746094,17.233293533,0
2.000,-6602.192382813,20.926172256,0
2.002,-6596.906738281,20.386886597,0
2.004,-6592.762207031,19.079538345,0
2.006,-6584.370605469,21.366378784,0
2.008,-6578.775878906,20.969226837,0
2.010,-6576.321777344,18.218019485,0
2.012,-6568.207031250,20.480810165,0
2.014,-6560.487792969,21.932912827,0
2.016,-6559.053222656,18.174430847,0
2.018,-6549.963867188,21.205007553,0
2.020,-6540.572753906,23.796617508,0
2.022,-6543.646972656,16.117238998,0
2.024,-6536.268066406,18.274478912,0
2.026,-6526.456054688,21.844934464,0
2.028,-6522.451660156,20.104837418,0
2.030,-6519.641113281,17.822750092,0
2.032,-6513.600585938,18.560066223,0
2.034,-6512.640136719,15.182291985,0
2.036,-6511.890136719,12.391807556,0
2.038,-6515.717773438,6.660733223,0
2.040,-6527.322753906,-3.845128775,0
2.042,-6539.176269531,-12.210011482,0
2.044,-6547.607910156,-16.054374695,0
2.046,-6562.088378906,-23.749286652,0
2.048,-6581.506347656,-33.573867798,0
2.050,-6601.320312500,-41.523281097,0
2.052,-6616.708984375,-44.264354706,0
2.054,-6626.069335938,-41.707405090,0
2.056,-6640.404296875,-43.588165283,0
2.058,-6662.164550781,-50.825805664,0
2.060,-6677.238281250,-51.254650116,0
2.062,-6685.352539063,-46.175205231,0
2.064,-6699.802246094,-47.151943207,0
2.066,-6708.643066406,-43.549476624,0
2.068,-6720.457519531,-43.060344696,0
2.070,-6734.081542969,-44.087207794,0
2.072,-6740.498535156,-39.280609131,0
2.074,-6745.874023438,-34.732059479,0
2.076,-6753.932617188,-33.281089783,0
2.078,-6758.933105469,-29.774240494,0
2.080,-6765.942382813,-28.608966827,0
2.082,-6771.781738281,-26.792896271,0
2.084,-6775.519531250,-23.745672226,0
2.086,-6781.505371094,-23.124250412,0
2.088,-6784.583496094,-20.379169464,0
2.090,-6778.851562500,-11.392398834,0
2.092,-6779.897460938,-9.673863411,0
2.094,-6784.900390625,-11.415174484,0
2.096,-6781.147460938,-5.959387302,0
2.098,-6781.047851563,-4.557552338,0
2.100,-6783.505859375,-5.456635952,0
2.102,-6783.415527344,-4.173869610,0
2.104,-6783.142578125,-3.033938885,0
2.106,-6778.808593750,1.011236072,0
2.108,-6777.779296875,1.586909413,0
2.110,-6780.578125000,-0.942334592,0
2.112,-6777.949707031,1.311334610,0
2.114,-6779.796386719,-0.416506857,0
2.116,-6778.963378906,0.324124664,0
2.118,-6776.395019531,2.249609709,0
2.120,-6778.658203125,-0.010642985,0
2.122,-6775.545898438,2.412561893,0
2.124,-6767.779785156,7.916295052,0
2.126,-6770.446289063,4.083461761,0
2.128,-6773.933593750,0.463460594,0
2.130,-6773.087402344,1.018643498,0
2.132,-6773.131835938,0.757696390,0
2.134,-6771.851074219,1.585576296,0
2.136,-6774.965820313,-1.189632416,0
2.138,-6770.230468750,2.757869482,0
2.140,-6766.604980469,4.964834690,0
2.142,-6773.634765625,-1.606121302,0
2.144,-6775.118164063,-2.402998447,0
2.146,-6776.487304688,-2.933525801,0
2.148,-6776.518066406,-2.305709839,0
2.150,-6776.893554688,-2.085433960,0
2.152,-6777.602050781,-2.172812700,0
2.154,-6769.383300781,4.702241898,0
2.156,-6765.795898438,6.447279930,0
2.158,-6765.912597656,4.923944950,0
2.160,-6765.844726563,3.882353544,0
2.162,-6766.482421875,2.523694515,0
2.164,-6765.807128906,2.488086939,0
2.166,-6767.503906250,0.615167141,0
2.168,-6775.737792969,-5.925375462,0
2.170,-6773.199218750,-2.634209871,0
2.172,-6764.754882813,4.518993378,0
2.174,-6764.128417969,4.001806259,0
2.176,-6765.812500000,1.802739501,0
2.178,-6765.777832031,1.428986549,0
2.180,-6763.131347656,3.169724703,0
2.182,-6766.214843750,0.067396007,0
2.184,-6760.867187500,4.211363792,0
2.186,-6756.280761719,6.842844963,0
2.188,-6761.623046875,1.167172432,0
2.190,-6761.107910156,1.308328152,0
2.192,-6758.729492188,2.867479563,0
2.194,-6755.799316406,4.509084225,0
2.196,-6756.676269531,2.824797153,0
2.198,-6755.671875000,2.978520632,0
2.200,-6749.402343750,7.192799568,0
2.202,-6750.428710938,4.796164989,0
2.204,-6748.943847656,4.884910583,0
2.206,-6743.674804688,7.897551060,0
2.208,-6749.747070313,1.419536352,0
2.210,-6754.500000000,-2.592477798,0
2.212,-6752.470214844,-0.437880486,0
2.214,-6754.079589844,-1.592250705,0
2.216,-6747.870117188,3.591427088,0
2.218,-6746.902343750,3.545711756,0
2.220,-6750.104492188,0.267222673,0
2.222,-6752.817382813,-1.902137399,0
2.224,-6753.462402344,-1.981100202,0
2.226,-6757.315429688,-4.537577152,0
2.228,-6758.592773438,-4.522457600,0
2.230,-6757.700683594,-2.823868990,0
2.232,-6761.639648438,-5.259654522,0
2.234,-6763.446289063,-5.495946407,0
2.236,-6761.415527344,-2.695129633,0
2.238,-6762.720703125,-3.111532211,0
2.240,-6763.492187500,-3.020113468,0
2.242,-6762.124511719,-1.284937263,0
2.244,-6764.117675781,-2.549567699,0
2.246,-6757.700195313,3.008122921,0
2.248,-6755.513183594,4.040714264,0
2.250,-6763.104003906,-2.761335373,0
2.252,-6761.224609375,-0.685934126,0
2.254,-6755.978515625,3.546721220,0
2.256,-6757.943847656,1.230288386,0
2.258,-6757.057128906,1.646441340,0
2.260,-6761.293457031,-2.014318228,0
2.262,-6766.084472656,-5.293104172,0
2.264,-6767.566894531,-5.269654751,0
2.266,-6768.631835938,-4.926962852,0
2.268,-6770.584960938,-5.350957870,0
2.270,-6770.884277344,-4.394695282,0
2.272,-6763.268066406,2.505619764,0
2.274,-6767.821777344,-1.592804790,0
2.276,-6770.147949219,-3.048243284,0
2.278,-6768.174316406,-0.835628986,0
2.280,-6777.272460938,-7.726362705,0
2.282,-6781.994140625,-9.681601524,0
2.284,-6782.998046875,-8.310905457,0
2.286,-6787.155273438,-9.697105408,0
2.288,-6784.325195313,-5.341312408,0
2.290,-6781.613769531,-2.045234919,0
2.292,-6776.416503906,2.451620340,0
2.294,-6769.174316406,7.539526463,0
2.296,-6771.074707031,4.385838509,0
2.298,-6782.059570313,-5.132450104,0
2.300,-6788.041015625,-8.644164085,0
2.302,-6789.411132813,-7.788884163,0
2.304,-6786.429199219,-3.738645554,0
2.306,-6775.257812500,5.780986786,0
2.308,-6760.720214844,15.803214073,0
2.310,-6743.499023438,25.685178757,0
2.312,-6730.984375000,29.710708618,0
2.314,-6720.235839844,31.467868805,0
2.316,-6712.455566406,30.526132584,0
2.318,-6716.704101563,20.437837601,0
2.320,-6717.065429688,15.614756584,0
2.322,-6712.405273438,15.769248009,0
2.324,-6719.498535156,6.747915268,0
2.326,-6727.242187500,-0.774403334,0
2.328,-6723.532226563,2.283031940,0
2.330,-6719.565917969,4.860546112,0
2.332,-6720.693359375,2.903615713,0
2.334,-6723.567871094,0.022567879,0
2.336,-6721.170898438,1.881804347,0
2.338,-6717.779785156,4.100986481,0
2.340,-6712.762207031,7.092221260,0
2.342,-6713.970214844,4.576532841,0
2.344,-6721.075683594,-1.966801167,0
2.346,-6734.484863281,-11.959123611,0
2.348,-6750.690917969,-21.905776978,0
2.350,-6752.631347656,-18.546958923,0
2.352,-6752.149414063,-14.050255775,0
2.354,-6762.374023438,-18.880384445,0
2.356,-6768.185058594,-19.204158783,0
2.358,-6766.432617188,-13.573458672,0
2.360,-6761.979003906,-7.092954159,0
2.362,-6757.400390625,-1.955795050,0
2.364,-6760.667480469,-4.061995029,0
2.366,-6761.739746094,-3.993374586,0
2.368,-6759.404785156,-1.289666057,0
2.370,-6758.050781250,0.050116945,0
2.372,-6755.418457031,2.086141825,0
2.374,-6757.403320313,0.078862764,0
2.376,-6755.272949219,1.718295574,0
2.378,-6747.097656250,7.694770813,0
2.380,-6752.917968750,1.457839251,0
2.382,-6757.897949219,-2.739363670,0
2.384,-6757.006835938,-1.437394977,0
2.386,-6759.273925781,-2.881357670,0
2.388,-6755.458984375,0.726271749,0
2.390,-6757.786132813,-1.245309711,0
2.392,-6767.240722656,-8.321928024,0
2.394,-6764.907714844,-4.657992840,0
2.396,-6764.559082031,-3.351664782,0
2.398,-6767.187011719,-4.650822163,0
2.400,-6764.839843750,-1.791560650,0
2.402,-6761.513671875,1.193327427,0
2.404,-6760.583984375,1.651337624,0
2.406,-6762.224121094,0.008907861,0
2.408,-6764.833496094,-2.022591591,0
2.410,-6761.749023438,0.825894773,0
2.412,-6761.083496094,1.159859180,0
2.414,-6753.815917969,6.554457664,0
2.416,-6753.097656250,5.656620502,0
2.418,-6763.102539063,-3.382068872,0
2.420,-6767.565917969,-6.101678371,0
2.422,-6787.356933594,-20.138690948,0
2.424,-6821.734863281,-42.401199341,0
2.426,-6854.574707031,-58.520168304,0
2.428,-6877.483886719,-63.332859039,0
2.430,-6879.823730469,-51.078109741,0
2.432,-6875.581054688,-36.427097321,0
2.434,-6876.631347656,-29.148851395,0
2.436,-6873.411132813,-20.166316986,0
2.438,-6875.844238281,-17.577341080,0
2.440,-6867.253417969,-6.989163876,0
2.442,-6857.151367188,2.421116590,0
2.444,-6855.225585938,3.380852461,0
2.446,-6799.482421875,45.984458923,0
2.448,-6651.710937500,150.697097778,0
2.450,-6454.809082031,270.351196289,0
2.452,-6210.474609375,400.306152344,0
2.454,-5920.949707031,536.528259277,0
2.456,-5619.867675781,651.466003418,0
2.458,-5260.779785156,785.976379395,0
2.460,-4929.955566406,868.611328125,0
2.462,-4803.469238281,773.954895020,0
2.464,-4769.999023438,627.989135742,0
2.466,-4721.354492188,526.263671875,0
2.468,-4836.045898438,320.107543945,0
2.470,-5145.534179688,8.259299278,0
2.472,-5441.098632813,-223.456466675,0
2.474,-5640.720703125,-329.056884766,0
2.476,-5761.151855469,-349.597259521,0
2.478,-5858.081054688,-347.293640137,0
2.480,-5998.862304688,-379.609008789,0
2.482,-6140.536132813,-405.437164307,0
2.484,-6237.853027344,-391.025634766,0
2.486,-6328.785644531,-374.851409912,0
2.488,-6415.443847656,-358.947631836,0
2.490,-6480.998535156,-330.164154053,0
2.492,-6534.649414063,-298.518920898,0
2.494,-6574.217773438,-262.953399658,0
2.496,-6608.319335938,-231.039520264,0
2.498,-6641.011718750,-205.122070313,0
2.500,-6664.656250000,-177.927276611,0
2.502,-6679.041503906,-149.574508667,0
2.504,-6687.751464844,-123.108573914,0
2.506,-6691.812500000,-98.908416748,0
2.508,-6700.651855469,-83.802650452,0
2.510,-6708.512207031,-71.292678833,0
2.512,-6715.060058594,-60.541671753,0
2.514,-6718.672851563,-49.897315979,0
2.516,-6726.270507813,-44.717777252,0
2.518,-6730.816894531,-38.315971375,0
2.520,-6737.804687500,-35.235946655,0
2.522,-6745.531738281,-33.415100098,0
2.524,-6746.923828125,-27.071912766,0
2.526,-6746.875000000,-21.017940521,0
2.528,-6749.443847656,-18.344850540,0
2.530,-6751.661132813,-15.992634773,0
2.532,-6750.122070313,-11.241348267,0
2.534,-6746.405761719,-5.852880001,0
2.536,-6743.703125000,-2.450224161,0
2.538,-6739.259765625,1.550138712,0
2.540,-6740.155273438,0.509204507,0
2.542,-6741.893554688,-0.955800414,0
2.544,-6740.251464844,0.533536017,0
2.546,-6745.130371094,-3.379442453,0
2.548,-6749.093261719,-5.710908890,0
2.550,-6747.003906250,-2.816626072,0
2.552,-6741.370605469,2.190860510,0
2.554,-6741.903808594,1.289089322,0
2.556,-6739.674316406,2.736618757,0
2.558,-6737.811523438,3.577525854,0
2.560,-6738.895996094,1.939039111,0
2.562,-6736.551269531,3.331605196,0
2.564,-6737.603027344,1.773173094,0
2.566,-6735.922851563,2.685970545,0
2.568,-6730.402832031,6.382279396,0
2.570,-6728.128417969,6.732827187,0
2.572,-6729.909179688,3.851726294,0
2.574,-6733.170410156,0.459041744,0
2.576,-6735.574218750,-1.512296081,0
2.578,-6732.936523438,0.875266969,0
2.580,-6734.376464844,-0.439330667,0
2.582,-6731.989746094,1.514774323,0
2.584,-6727.208984375,4.896541119,0
2.586,-6724.089355469,6.234573364,0
2.588,-6720.448730469,7.680678844,0
2.590,-6721.338867188,5.281438828,0
2.592,-6721.790039063,3.756897449,0
2.594,-6721.460937500,3.178027153,0
2.596,-6721.487792969,2.450525284,0
2.598,-6720.079589844,3.001359463,0
2.600,-6716.327636719,5.252408504,0
2.602,-6710.482421875,8.631507874,0
2.604,-6709.183593750,7.723272324,0
2.606,-6707.098632813,7.628656387,0
2.608,-6706.961425781,6.040250301,0
2.610,-6710.260742188,2.131704330,0
2.612,-6708.635253906,2.922255754,0
2.614,-6705.757812500,4.510621071,0
2.616,-6705.590332031,3.638427258,0
2.618,-6706.524902344,2.103264570,0
2.620,-6706.176269531,1.906856418,0
2.622,-6701.210937500,5.345052719,0
2.624,-6696.487304688,7.831057072,0
2.626,-6691.073242188,10.301444054,0
2.628,-6689.281738281,9.405615807,0
2.630,-6689.556640625,7.101572037,0
2.632,-6686.787597656,7.677074432,0
2.634,-6686.222656250,6.410221100,0
2.636,-6681.545898438,8.623248100,0
2.638,-6677.853515625,9.578627586,0
2.640,-6676.913574219,8.180948257,0
2.642,-6674.659179688,8.116517067,0
2.644,-6673.281250000,7.384198189,0
2.646,-6670.981445313,7.531988621,0
2.648,-6667.372070313,8.665629387,0
2.650,-6668.275390625,6.036963940,0
2.652,-6669.326660156,3.877759933,0
2.654,-6663.375000000,7.645137787,0
2.656,-6657.601074219,10.436920166,0
2.658,-6659.480957031,6.655518532,0
2.660,-6656.791992188,7.267717838,0
2.662,-6645.610351563,14.349348068,0
2.664,-6638.951660156,16.339284897,0
2.666,-6637.159667969,14.102083206,0
2.668,-6632.565429688,14.541434288,0
2.670,-6630.487304688,12.925857544,0
2.672,-6632.292968750,8.648938179,0
2.674,-6627.072753906,10.787052155,0
2.676,-6619.314941406,14.423636436,0
2.678,-6609.938476563,18.510925293,0
2.680,-6601.959960938,20.602621078,0
2.682,-6594.432617188,21.878601074,0
2.684,-6590.766601563,19.867895126,0
2.686,-6581.467773438,22.684991837,0
2.688,-6574.458496094,23.095125198,0
2.690,-6576.712402344,16.209533691,0
2.692,-6569.084960938,18.539686203,0
2.694,-6561.739257813,20.132616043,0
2.696,-6555.919921875,20.184873581,0
2.698,-6543.833984375,25.099117279,0
2.700,-6542.829101563,20.302921295,0
2.702,-6541.710937500,16.660631180,0
2.704,-6539.180664063,14.926115990,0
2.706,-6546.409667969,5.986404419,0
2.708,-6551.297851563,0.854332685,0
2.710,-6558.647949219,-5.052177906,0
2.712,-6570.483398438,-13.134751320,0
2.714,-6583.876953125,-20.632980347,0
2.716,-6600.038085938,-28.617137909,0
2.718,-6613.346191406,-32.608299255,0
2.720,-6632.435546875,-40.208538055,0
2.722,-6648.616210938,-43.857669830,0
2.724,-6663.111328125,-45.384998322,0
2.726,-6678.536132813,-47.296123505,0
2.728,-6691.465820313,-46.841384888,0
2.730,-6703.222656250,-45.575809479,0
2.732,-6711.127929688,-41.595897675,0
2.734,-6724.569824219,-42.806762695,0
2.736,-6742.882812500,-47.536987305,0
2.738,-6752.668945313,-44.583850861,0
2.740,-6756.415039063,-37.589611053,0
2.742,-6763.594238281,-34.819881439,0
2.744,-6773.756835938,-34.985816956,0
2.746,-6778.001953125,-30.512662888,0
2.748,-6780.088867188,-25.354688644,0
2.750,-6782.866210938,-21.880311966,0
2.752,-6792.636230469,-24.616664886,0
2.754,-6796.471679688,-22.128934860,0
2.756,-6794.718261719,-15.847483635,0
2.758,-6800.953125000,-17.175027847,0
2.760,-6808.251953125,-19.034706116,0
2.762,-6811.277343750,-17.157962799,0
2.764,-6815.833007813,-16.888168335,0
2.766,-6823.660644531,-19.222921371,0
2.768,-6820.526367188,-12.513379097,0
2.770,-6812.676269531,-3.626704931,0
2.772,-6817.387695313,-6.485344410,0
2.774,-6819.629882813,-6.787961960,0
2.776,-6816.787109375,-3.068289280,0
2.778,-6817.063964844,-2.601752520,0
2.780,-6820.799316406,-4.929057121,0
2.782,-6822.038085938,-4.797003746,0
2.784,-6822.821289063,-4.340260506,0
2.786,-6821.895019531,-2.654981136,0
2.788,-6819.718261719,-0.372110128,0
2.790,-6821.787597656,-1.898815751,0
2.792,-6823.372070313,-2.709057331,0
2.794,-6823.793457031,-2.434909105,0
2.796,-6822.051269531,-0.538711429,0
2.798,-6821.556640625,-0.034468219,0
2.800,-6821.056640625,0.362078547,0
2.802,-6819.696777344,1.339372873,0
2.804,-6816.118164063,3.824963093,0
2.806,-6816.682617188,2.536178112,0
2.808,-6820.943359375,-1.341407657,0
2.810,-6817.775390625,1.420532227,0
2.812,-6810.837402344,6.500861168,0
2.814,-6814.638183594,2.100033283,0
2.816,-6819.272460938,-1.970767856,0
2.818,-6816.640625000,0.513853490,0
2.820,-6810.301757813,5.329901218,0
2.822,-6809.163085938,5.031188965,0
2.824,-6811.972656250,1.727947950,0
2.826,-6813.315429688,0.299413145,0
2.828,-6810.852050781,2.148891926,0
2.830,-6806.851074219,4.783260822,0
2.832,-6808.000000000,2.826481819,0
2.834,-6808.520507813,1.793479443,0
2.836,-6804.920898438,4.194745064,0
2.838,-6804.182617188,3.836697102,0
2.840,-6805.903808594,1.645291328,0
2.842,-6807.365234375,0.143163875,0
2.844,-6810.551269531,-2.366827488,0
2.846,-6811.118164063,-2.281585455,0
2.848,-6811.282714844,-1.902678967,0
2.850,-6813.370117188,-3.103218555,0
2.852,-6811.380371094,-0.866209745,0
2.854,-6811.253906250,-0.575113773,0
2.856,-6817.117675781,-5.008206844,0
2.858,-6814.991210938,-2.241307497,0
2.860,-6809.032226563,2.891497135,0
2.862,-6806.216308594,4.439176083,0
2.864,-6809.170898438,1.154829264,0
2.866,-6813.184570313,-2.223732471,0
2.868,-6813.835937500,-2.236250401,0
2.870,-6822.787597656,-8.701429367,0
2.872,-6826.232910156,-9.447398186,0
2.874,-6820.319824219,-2.748725891,0
2.876,-6814.871582031,2.099632502,0
2.878,-6817.371582031,-0.311496198,0
2.880,-6820.938476563,-3.016371250,0
2.882,-6820.554687500,-2.047706604,0
2.884,-6824.692871094,-4.811304092,0
2.886,-6829.683593750,-7.623731136,0
2.888,-6832.825195313,-8.372651100,0
2.890,-6830.557617188,-4.748538017,0
2.892,-6829.162109375,-2.607873201,0
2.894,-6829.801757813,-2.525923729,0
2.896,-6834.038574219,-5.259637356,0
2.898,-6835.650878906,-5.344990253,0
2.900,-6834.574707031,-3.319853544,0
2.902,-6833.631347656,-1.848565221,0
2.904,-6833.247070313,-1.138805270,0
2.906,-6834.839843750,-2.124515772,0
2.908,-6836.347656250,-2.825270653,0
2.910,-6836.419921875,-2.253606796,0
2.912,-6838.323730469,-3.233228207,0
2.914,-6837.281250000,-1.703991294,0
2.916,-6838.657714844,-2.395825863,0
2.918,-6842.192871094,-4.613039494,0
2.920,-6845.960937500,-6.518576145,0
2.922,-6845.571289063,-4.766977787,0
2.924,-6844.346191406,-2.754730225,0
2.926,-6843.518066406,-1.498132944,0
2.928,-6842.598632813,-0.450340897,0
2.930,-6845.217773438,-2.387109041,0
2.932,-6846.044433594,-2.499899149,0
2.934,-6845.535644531,-1.548604965,0
2.936,-6847.816406250,-2.978231430,0
2.938,-6845.958007813,-0.871101201,0
2.940,-6846.440429688,-1.052676678,0
2.942,-6848.822265625,-2.671255827,0
2.944,-6842.445312500,2.882245541,0
2.946,-6847.576660156,-1.749264240,0
2.948,-6853.877441406,-6.261182308,0
2.950,-6848.325195313,-0.551418304,0
2.952,-6853.610839844,-4.539639950,0
2.954,-6860.191406250,-8.649107933,0
2.956,-6859.202636719,-5.957812309,0
2.958,-6860.980468750,-6.016760349,0
2.960,-6864.385253906,-7.327775955,0
2.962,-6867.548339844,-8.159352303,0
2.964,-6867.539550781,-6.339084148,0
2.966,-6862.528320313,-1.033012271,0
2.968,-6861.320800781,0.135774925,0
2.970,-6861.419921875,0.028785715,0
2.972,-6855.810546875,4.384954929,0
2.974,-6856.770019531,2.664140463,0
2.976,-6860.272949219,-0.652295649,0
2.978,-6869.269531250,-7.504608154,0
2.980,-6874.132812500,-9.619188309,0
2.982,-6872.869140625,-6.498732090,0
2.984,-6871.505371094,-3.993814230,0
2.986,-6868.669921875,-0.900756598,0
2.988,-6863.495117188,3.324030399,0
2.990,-6864.307617188,1.953450680,0
2.992,-6865.923339844,0.262655407,0
2.994,-6863.946777344,1.741693139,0
2.996,-6876.213378906,-8.185994148,0
2.998,-6884.512207031,-12.821598053,0
3.000,-6885.292968750,-10.579201698,0
3.002,-6888.014160156,-10.344665527,0
3.004,-6873.516113281,3.230319738,0
3.006,-6851.126953125,19.926099777,0
3.008,-6834.179199219,28.679117203,0
3.010,-6822.087402344,31.710189819,0
3.012,-6810.421875000,33.736541748,0
3.014,-6806.783691406,29.068778992,0
3.016,-6810.312011719,19.864355087,0
3.018,-6810.202636719,15.534879684,0
3.020,-6813.717285156,9.348985672,0
3.022,-6824.285156250,-0.947750926,0
3.024,-6829.089355469,-4.473655224,0
3.026,-6822.676757813,1.507859826,0
3.028,-6817.983398438,4.823116302,0
3.030,-6819.879394531,2.276807308,0
3.032,-6818.901367188,2.531250715,0
3.034,-6817.105468750,3.365443230,0
3.036,-6823.149902344,-2.083412170,0
3.038,-6825.127929688,-3.158941031,0
3.040,-6824.386718750,-1.880548477,0
3.042,-6828.119628906,-4.365713596,0
3.044,-6833.513671875,-7.590944290,0
3.046,-6839.305175781,-10.408348083,0
3.048,-6845.752441406,-13.109722137,0
3.050,-6851.282226563,-14.497300148,0
3.052,-6855.109375000,-14.252027512,0
3.054,-6857.261230469,-12.758366585,0
3.056,-6854.199707031,-7.541899681,0
3.058,-6855.995117188,-7.262526989,0
3.060,-6858.770019531,-7.806627274,0
3.062,-6856.471679688,-4.284085274,0
3.064,-6854.037597656,-1.439159989,0
3.066,-6856.389648438,-2.948590279,0
3.068,-6857.543945313,-3.191163063,0
3.070,-6856.914550781,-1.992302179,0
3.072,-6855.145019531,-0.173359603,0
3.074,-6855.088378906,-0.090618856,0
3.076,-6858.705566406,-2.883861303,0
3.078,-6856.739257813,-0.713866115,0
3.080,-6854.070800781,1.520506024,0
3.082,-6857.061035156,-1.143407941,0
3.084,-6856.274902344,-0.277827114,0
3.086,-6860.118164063,-3.205262661,0
3.088,-6864.033691406,-5.538052559,0
3.090,-6860.702148438,-1.716316462,0
3.092,-6860.071289063,-0.844356775,0
3.094,-6861.565429688,-1.818606853,0
3.096,-6858.068359375,1.305436254,0
3.098,-6853.441894531,4.613777637,0
3.100,-6856.238769531,1.412965178,0
3.102,-6856.017578125,1.270986319,0
3.104,-6850.005859375,5.664188385,0
3.106,-6853.563476563,1.638646126,0
3.108,-6859.520507813,-3.359012365,0
3.110,-6860.353515625,-3.260348797,0
3.112,-6860.865722656,-2.933894873,0
3.114,-6860.498535156,-1.996543407,0
3.116,-6860.184082031,-1.308399200,0
3.118,-6867.211914063,-6.483492374,0
3.120,-6876.395019531,-12.184949875,0
3.122,-6895.499023438,-24.335588455,0
3.124,-6930.856445313,-46.427124023,0
3.126,-6967.970214844,-64.975349426,0
3.128,-6985.011718750,-63.790218353,0
3.130,-6985.595214844,-50.067951202,0
3.132,-6982.236816406,-36.329200745,0
3.134,-6982.680175781,-28.600408554,0
3.136,-6989.929687500,-27.882780075,0
3.138,-6988.614746094,-20.663652420,0
3.140,-6984.588378906,-12.939969063,0
3.142,-6996.260253906,-19.142240524,0
3.144,-6964.405761719,9.887044907,0
3.146,-6849.689453125,96.912490845,0
3.148,-6673.359375000,212.519149780,0
3.150,-6432.420898438,352.684844971,0
3.152,-6140.735839844,501.170074463,0
3.154,-5848.015136719,617.462524414,0
3.156,-5507.992187500,744.701354980,0
3.158,-5125.631347656,876.592590332,0
3.160,-4886.215820313,867.995117188,0
3.162,-4815.347656250,730.217224121,0
3.164,-4760.027832031,610.965515137,0
3.166,-4784.984375000,455.778930664,0
3.168,-5038.327636719,157.447601318,0
3.170,-5365.211425781,-131.781890869,0
3.172,-5598.161132813,-283.676422119,0
3.174,-5748.252441406,-337.370666504,0
3.176,-5861.283691406,-350.307708740,0
3.178,-6002.395507813,-382.210449219,0
3.180,-6158.027832031,-418.316589355,0
3.182,-6274.750976563,-416.136779785,0
3.184,-6377.098144531,-403.259796143,0
3.186,-6476.996093750,-391.339874268,0
3.188,-6554.700683594,-364.807556152,0
3.190,-6608.604492188,-325.660247803,0
3.192,-6647.623046875,-283.635559082,0
3.194,-6681.092285156,-246.633804321,0
3.196,-6717.454101563,-220.104812622,0
3.198,-6750.367675781,-196.789627075,0
3.200,-6773.573242188,-171.105209351,0
3.202,-6777.265625000,-135.951782227,0
3.204,-6777.845703125,-106.190139771,0
3.206,-6786.176757813,-89.070678711,0
3.208,-6798.960937500,-79.219673157,0
3.210,-6806.870605469,-67.766410828,0
3.212,-6814.621093750,-58.734268188,0
3.214,-6820.425292969,-50.196182251,0
3.216,-6826.993652344,-44.149482727,0
3.218,-6830.286621094,-36.899158478,0
3.220,-6834.459960938,-31.944971085,0
3.222,-6834.321289063,-24.738010406,0
3.224,-6834.241210938,-19.177967072,0
3.226,-6834.464843750,-15.090121269,0
3.228,-6831.833984375,-9.690331459,0
3.230,-6829.794921875,-5.950772285,0
3.232,-6837.862304688,-10.902968407,0
3.234,-6842.253417969,-11.895255089,0
3.236,-6839.222656250,-6.894667625,0
3.238,-6835.963378906,-2.827409744,0
3.240,-6837.104980469,-3.086892128,0
3.242,-6841.311523438,-5.672673702,0
3.244,-6838.741699219,-2.413128614,0
3.246,-6837.850097656,-1.183646679,0
3.248,-6836.414550781,0.196170762,0
3.250,-6835.474609375,0.883381307,0
3.252,-6836.131835938,0.176050425,0
3.254,-6833.048339844,2.535027981,0
3.256,-6831.579101563,3.114525795,0
3.258,-6831.476074219,2.502570152,0
3.260,-6830.367187500,2.808864117,0
3.262,-6830.980468750,1.707780361,0
3.264,-6830.262695313,1.886418462,0
3.266,-6828.430175781,2.892309189,0
3.268,-6825.123046875,4.821950912,0
3.270,-6819.641601563,8.013549805,0
3.272,-6818.510742188,7.112233639,0
3.274,-6823.018554688,2.025694609,0
3.276,-6822.176757813,2.230196953,0
3.278,-6815.987792969,6.547988415,0
3.280,-6814.098144531,6.562597275,0
3.282,-6816.367675781,3.339154243,0
3.284,-6812.042480469,5.961052895,0
3.286,-6810.611328125,5.749217510,0
3.288,-6812.328125000,3.136446238,0
3.290,-6809.951660156,4.287753582,0
3.292,-6809.278808594,3.857986927,0
3.294,-6802.404296875,8.347724915,0
3.296,-6798.350585938,9.645422935,0
3.298,-6801.431152344,5.105765343,0
3.300,-6799.439453125,5.520196915,0
3.302,-6799.644042969,4.134298325,0
3.304,-6803.486816406,0.226677269,0
3.306,-6794.544433594,7.131379128,0
3.308,-6793.748046875,6.166176319,0
3.310,-6795.226074219,3.646073103,0
3.312,-6791.749511719,5.539743900,0
3.314,-6790.391113281,5.365061760,0
3.316,-6788.043945313,5.998369217,0
3.318,-6785.814941406,6.399079323,0
3.320,-6784.030273438,6.364950180,0
3.322,-6775.801269531,11.350828171,0
3.324,-6773.417480469,10.682405472,0
3.326,-6773.283691406,8.412335396,0
3.328,-6773.379882813,6.468154907,0
3.330,-6770.754882813,7.072438717,0
3.332,-6765.733398438,9.406213760,0
3.334,-6767.603027344,5.861788750,0
3.336,-6765.876953125,5.901465893,0
3.338,-6761.261718750,8.179431915,0
3.340,-6763.537597656,4.591682911,0
3.342,-6763.452636719,3.637450218,0
3.344,-6759.620117188,5.809787273,0
3.346,-6758.897460938,5.080928326,0
3.348,-6759.724609375,3.308323383,0
3.350,-6756.039550781,5.439270496,0
3.352,-6747.446777344,10.913682938,0
3.354,-6740.099609375,14.202489853,0
3.356,-6733.094726563,16.494672775,0
3.358,-6729.370605469,15.725461006,0
3.360,-6728.157226563,13.174523354,0
3.362,-6726.453613281,11.571623802,0
3.364,-6725.688964844,9.594781876,0
3.366,-6729.111816406,4.800301075,0
3.368,-6719.861816406,10.927840233,0
3.370,-6712.604492188,14.143693924,0
3.372,-6706.806152344,15.510560989,0
3.374,-6699.675292969,17.609674454,0
3.376,-6697.248535156,15.583747864,0
3.378,-6696.232421875,12.910577774,0
3.380,-6692.859863281,12.664500237,0
3.382,-6688.555175781,13.198274612,0
3.384,-6683.104980469,14.504192352,0
3.386,-6675.601562500,17.116870880,0
3.388,-6668.884765625,18.537033081,0
3.390,-6663.027832031,18.972906113,0
3.392,-6652.534179688,22.918128967,0
3.394,-6646.662109375,22.391983032,0
3.396,-6640.335449219,22.336400986,0
3.398,-6634.849609375,21.639242172,0
3.400,-6635.192871094,16.563373566,0
3.402,-6631.111328125,16.056835175,0
3.404,-6627.387207031,15.385166168,0
3.406,-6631.097167969,9.080383301,0
3.408,-6640.801757813,-0.485479653,0
3.410,-6648.936523438,-6.704427242,0
3.412,-6657.332519531,-11.744709969,0
3.414,-6671.076660156,-19.824361801,0
3.416,-6686.803222656,-27.650415421,0
3.418,-6700.567382813,-32.210876465,0
3.420,-6716.927734375,-37.777240753,0
3.422,-6733.399902344,-42.193275452,0
3.424,-6743.017089844,-40.296504974,0
3.426,-6755.854492188,-41.326004028,0
3.428,-6771.237304688,-44.106220245,0
3.430,-6785.474121094,-45.377433777,0
3.432,-6799.108398438,-45.897212982,0
3.434,-6809.835937500,-44.040817261,0
3.436,-6817.840332031,-40.479152679,0
3.438,-6826.037109375,-37.858665466,0
3.440,-6839.371093750,-39.815879822,0
3.442,-6845.686035156,-35.879138947,0
3.444,-6846.939941406,-28.880971909,0
3.446,-6849.276855469,-24.280307770,0
3.448,-6857.159667969,-25.015439987,0
3.450,-6865.120117188,-25.647294998,0
3.452,-6868.655761719,-22.697837830,0
3.454,-6861.076171875,-11.758191109,0
3.456,-6862.280761719,-10.082191467,0
3.458,-6865.918945313,-10.671252251,0
3.460,-6865.729003906,-8.151968956,0
3.462,-6864.479980469,-5.369025230,0
3.464,-6864.739746094,-4.377733707,0
3.466,-6862.927246094,-1.995027542,0
3.468,-6866.136230469,-4.047586918,0
3.470,-6866.414062500,-3.364433765,0
3.472,-6860.780273438,1.765318751,0
3.474,-6863.106933594,-0.436721832,0
3.476,-6867.986816406,-4.135109901,0
3.478,-6870.938964844,-5.512190819,0
3.480,-6870.324707031,-3.809375763,0
3.482,-6869.620117188,-2.414842606,0
3.484,-6870.664550781,-2.690587521,0
3.486,-6868.483398438,-0.396106839,0
3.488,-6864.935058594,2.451508284,0
3.490,-6868.498046875,-0.864294529,0
3.492,-6873.606933594,-4.645807743,0
3.494,-6872.552246094,-2.793040276,0
3.496,-6869.776367188,-0.013269434,0
3.498,-6869.037109375,0.564678848,0
3.500,-6863.919433594,4.419340611,0
3.502,-6861.516601563,5.305996418,0
3.504,-6861.837402344,3.877567530,0
3.506,-6857.411132813,6.458271980,0
3.508,-6856.088867188,6.051362991,0
3.510,-6862.093261719,0.036554154,0
3.512,-6859.339355469,2.170570612,0
3.514,-6858.304199219,2.493350506,0
3.516,-6861.577148438,-0.606485307,0
3.518,-6858.519042969,1.906882286,0
3.520,-6855.882324219,3.533643961,0
3.522,-6858.301757813,0.866881073,0
3.524,-6860.813964844,-1.279815912,0
3.526,-6863.629394531,-3.185117722,0
3.528,-6865.628417969,-4.032251358,0
3.530,-6865.568359375,-3.089280605,0
3.532,-6864.538574219,-1.601643920,0
3.534,-6861.892578125,0.812263191,0
3.536,-6861.645019531,0.824122548,0
3.538,-6860.260742188,1.717561722,0
3.540,-6857.411621094,3.551831722,0
3.542,-6858.456054688,1.950195432,0
3.544,-6861.358886719,-0.740820587,0
3.546,-6862.435058594,-1.413167357,0
3.548,-6858.113281250,2.262037992,0
3.550,-6862.073242188,-1.320448518,0
3.552,-6860.676269531,0.059568074,0
3.554,-6858.880371094,1.442863345,0
3.556,-6862.030273438,-1.327452898,0
3.558,-6861.209960938,-0.394517958,0
3.560,-6865.577148438,-3.703700304,0
3.562,-6864.323730469,-1.905399680,0
3.564,-6860.817382813,1.244872093,0
3.566,-6858.902343750,2.457703590,0
3.568,-6857.207031250,3.230353832,0
3.570,-6857.812988281,2.041173220,0
3.572,-6855.677246094,3.248363495,0
3.574,-6859.450683594,-0.408180326,0
3.576,-6859.513671875,-0.366405874,0
3.578,-6860.409179688,-0.981486380,0
3.580,-6861.843750000,-1.879315615,0
3.582,-6858.609375000,1.054063201,0
3.584,-6860.105957031,-0.344107002,0
3.586,-6862.622558594,-2.225087166,0
3.588,-6857.654296875,2.133505821,0
3.590,-6859.079101563,0.551282644,0
3.592,-6864.305664063,-3.636309147,0
3.594,-6863.150878906,-1.930235505,0
3.596,-6866.099609375,-3.794396162,0
3.598,-6868.257812500,-4.629992008,0
3.600,-6868.233398438,-3.581859112,0
3.602,-6867.894042969,-2.521973372,0
3.604,-6869.286621094,-3.044491529,0
3.606,-6869.502441406,-2.535913229,0
3.608,-6872.746093750,-4.495224476,0
3.610,-6871.509765625,-2.534783125,0
3.612,-6867.098632813,1.459554434,0
3.614,-6868.180664063,0.293683350,0
3.616,-6865.970703125,1.947198153,0
3.618,-6867.347167969,0.443950504,0
3.620,-6869.072753906,-0.997046709,0
3.622,-6871.732910156,-2.844431639,0
3.624,-6877.839355469,-6.961513519,0
3.626,-6879.896484375,-7.014394760,0
3.628,-6877.849121094,-3.863426924,0
3.630,-6880.411621094,-4.997838974,0
3.632,-6881.893066406,-5.039318085,0
3.634,-6881.115722656,-3.314882517,0
3.636,-6881.331542969,-2.745782375,0
3.638,-6878.610839844,-0.019809037,0
3.640,-6876.712890625,1.460748911,0
3.642,-6878.127929688,0.035796709,0
3.644,-6878.669921875,-0.393888146,0
3.646,-6878.762207031,-0.378160030,0
3.648,-6878.748535156,-0.283291340,0
3.650,-6880.307617188,-1.432865977,0
3.652,-6880.980957031,-1.638329864,0
3.654,-6875.438964844,3.036211252,0
3.656,-6874.307617188,3.241404295,0
3.658,-6880.000976563,-1.907097340,0
3.660,-6880.347656250,-1.753065348,0
3.662,-6881.860839844,-2.540226936,0
3.664,-6881.934570313,-2.033229351,0
3.666,-6877.231445313,2.076624155,0
3.668,-6876.354492188,2.297372580,0
3.670,-6877.558105469,0.850783169,0
3.672,-6879.092773438,-0.532203197,0
3.674,-6877.945312500,0.478840560,0
3.676,-6878.302734375,0.094395563,0
3.678,-6881.618164063,-2.505203962,0
3.680,-6882.339843750,-2.509953976,0
3.682,-6884.835449219,-3.893254042,0
3.684,-6887.177734375,-4.849784374,0
3.686,-6885.735839844,-2.650379658,0
3.688,-6881.753906250,1.035545588,0
3.690,-6877.537597656,4.084883690,0
3.692,-6881.470703125,0.117877208,0
3.694,-6882.442382813,-0.664082527,0
3.696,-6880.437011719,1.043197632,0
3.698,-6882.083007813,-0.468684196,0
3.700,-6885.418457031,-2.958934784,0
3.702,-6885.815917969,-2.610392809,0
3.704,-6882.093750000,0.864649773,0
3.706,-6879.463378906,2.718480825,0
3.708,-6882.163085938,0.014450002,0
3.710,-6880.869140625,1.017524958,0
3.712,-6881.699218750,0.146012157,0
3.714,-6884.369140625,-1.963104486,0
3.716,-6885.135253906,-2.122567892,0
3.718,-6885.154296875,-1.665812731,0
3.720,-6888.749023438,-4.091471195,0
3.722,-6885.851074219,-0.928364396,0
3.724,-6883.493164063,1.111986995,0
3.726,-6887.116210938,-1.953216791,0
3.728,-6883.948242188,0.944860399,0
3.730,-6882.702636719,1.703904986,0
3.732,-6886.739257813,-1.814538598,0
3.734,-6884.749023438,0.136919022,0
3.736,-6884.159667969,0.564838886,0
3.738,-6883.269531250,1.131366014,0
3.740,-6887.614257813,-2.498996258,0
3.742,-6885.516601563,-0.312265694,0
3.744,-6880.050292969,4.008695602,0
3.746,-6884.205078125,-0.113574080,0
3.748,-6891.330078125,-5.629993439,0
3.750,-6889.730957031,-3.134932756,0
3.752,-6893.009765625,-4.988478661,0
3.754,-6894.350097656,-4.922324657,0
3.756,-6887.976562500,1.128488302,0
3.758,-6884.134765625,3.865674973,0
3.760,-6887.687988281,0.243275627,0
3.762,-6887.770996094,0.124610864,0
3.764,-6886.910644531,0.766072929,0
3.766,-6887.915039063,-0.185563460,0
3.768,-6890.877929688,-2.448782206,0
3.770,-6896.337402344,-6.150750637,0
3.772,-6899.612792969,-7.331158161,0
3.774,-6892.771972656,-0.381439805,0
3.776,-6881.164062500,8.731451035,0
3.778,-6863.430175781,20.583868027,0
3.780,-6848.277832031,27.794551849,0
3.782,-6837.439453125,30.047554016,0
3.784,-6829.445800781,29.587081909,0
3.786,-6828.495605469,23.750926971,0
3.788,-6835.914062500,12.702935219,0
3.790,-6842.304687500,4.909377575,0
3.792,-6845.197753906,1.568517208,0
3.794,-6845.440429688,1.031202912,0
3.796,-6851.182128906,-3.663763523,0
3.798,-6853.595214844,-4.726479530,0
3.800,-6849.348632813,-0.373355269,0
3.802,-6844.777832031,3.264752626,0
3.804,-6841.101074219,5.398726940,0
3.806,-6841.669433594,3.757269144,0
3.808,-6843.905761719,1.182911515,0
3.810,-6844.525878906,0.437651992,0
3.812,-6847.701660156,-2.129690409,0
3.814,-6852.426269531,-5.330890656,0
3.816,-6857.460937500,-8.061995506,0
3.818,-6860.734863281,-8.816821098,0
3.820,-6860.528320313,-6.697016716,0
3.822,-6864.407714844,-8.225790024,0
3.824,-6873.770996094,-13.680312157,0
3.826,-6880.508789063,-15.880471230,0
3.828,-6879.227539063,-11.354795456,0
3.830,-6880.550292969,-9.860227585,0
3.832,-6880.518554688,-7.644296169,0
3.834,-6873.352539063,-0.371892929,0
3.836,-6875.569335938,-2.013309002,0
3.838,-6877.875000000,-3.359248877,0
3.840,-6877.045410156,-1.967714310,0
3.842,-6879.206542969,-3.210966349,0
3.844,-6881.400390625,-4.203959465,0
3.846,-6876.260742188,0.727918088,0
3.848,-6878.691894531,-1.324613333,0
3.850,-6882.319335938,-3.851776361,0
3.852,-6880.814941406,-1.825849056,0
3.854,-6880.754882813,-1.373018861,0
3.856,-6877.051269531,1.812522531,0
3.858,-6875.739746094,2.429753065,0
3.860,-6873.256347656,3.821309566,0
3.862,-6871.179199219,4.587521076,0
3.864,-6876.098632813,-0.258092344,0
3.866,-6877.356445313,-1.178990841,0
3.868,-6875.623046875,0.431163341,0
3.870,-6877.519531250,-1.139491200,0
3.872,-6877.099121094,-0.559243202,0
3.874,-6875.316894531,0.951108515,0
3.876,-6874.492187500,1.381196618,0
3.878,-6874.728027344,0.890853047,0
3.880,-6876.644531250,-0.797728896,0
3.882,-6875.911621094,-0.050368503,0
3.884,-6876.742187500,-0.685292661,0
3.886,-6880.101562500,-3.145697355,0
3.888,-6883.960449219,-5.448019505,0
3.890,-6889.182128906,-8.298766136,0
3.892,-6909.398437500,-22.177970886,0
3.894,-6943.895996094,-44.080383301,0
3.896,-6980.118164063,-62.456863403,0
3.898,-7000.761718750,-64.632629395,0
3.900,-7000.476074219,-50.047065735,0
3.902,-6995.224121094,-34.840202332,0
3.904,-6989.445312500,-22.603107452,0
3.906,-6993.887695313,-21.035009384,0
3.908,-7003.720214844,-24.007677078,0
3.910,-6992.451171875,-9.907936096,0
3.912,-6994.098144531,-8.986958504,0
3.914,-6981.462402344,2.837849379,0
3.916,-6887.115722656,75.587226868,0
3.918,-6735.339355469,176.835937500,0
3.920,-6515.098632813,308.833251953,0
3.922,-6222.148925781,468.047363281,0
3.924,-5942.958007813,581.177917480,0
3.926,-5634.509277344,691.922973633,0
3.928,-5241.910156250,843.506225586,0
3.930,-4919.013183594,907.190490723,0
3.932,-4781.367187500,812.640014648,0
3.934,-4725.825683594,675.243591309,0
3.936,-4713.953125000,534.416870117,0
3.938,-4892.262207031,276.968872070,0
3.940,-5228.374023438,-45.999324799,0
3.942,-5491.674316406,-240.563110352,0
3.944,-5656.814941406,-315.543334961,0
3.946,-5792.461425781,-350.920989990,0
3.948,-5929.957519531,-379.874969482,0
3.950,-6084.981445313,-416.027038574,0
3.952,-6219.363769531,-428.090637207,0
3.954,-6330.418457031,-419.329650879,0
3.956,-6435.262695313,-407.685455322,0
3.958,-6525.300781250,-387.113433838,0
3.960,-6593.440429688,-354.081176758,0
3.962,-6639.075195313,-310.886230469,0
3.964,-6673.474121094,-268.551483154,0
3.966,-6704.954589844,-233.355010986,0
3.968,-6736.916015625,-206.354812622,0
3.970,-6759.648437500,-178.176467896,0
3.972,-6770.741210938,-147.207458496,0
3.974,-6777.976562500,-120.120613098,0
3.976,-6782.303222656,-96.791351318,0
3.978,-6788.992187500,-80.483581543,0
3.980,-6797.411132813,-69.145378113,0
3.982,-6803.792968750,-58.742580414,0
3.984,-6810.698730469,-51.059196472,0
3.986,-6815.406250000,-43.373527527,0
3.988,-6821.740234375,-38.660800934,0
3.990,-6828.388183594,-35.239700317,0
3.992,-6831.029296875,-29.462596893,0
3.994,-6832.988281250,-24.438785553,0
3.996,-6831.241210938,-17.648998260,0
3.998,-6830.806152344,-13.388341904,0
4.000,-6833.505371094,-12.512311935,0
4.002,-6831.499023438,-8.171066284,0
4.004,-6829.096191406,-4.486305714,0
4.006,-6833.754882813,-7.112963676,0
4.008,-6838.973632813,-9.591125488,0
4.010,-6837.697265625,-6.466999531,0
4.012,-6837.343750000,-4.754788876,0
4.014,-6842.028808594,-7.342113972,0
4.016,-6841.066894531,-4.962334156,0
4.018,-6835.167968750,0.728633523,0
4.020,-6830.341308594,4.320503235,0
4.022,-6828.108398438,5.097253323,0
4.024,-6824.991210938,6.388853073,0
4.026,-6828.388183594,2.327121496,0
4.028,-6833.744140625,-2.355785370,0
4.030,-6831.940917969,-0.429871231,0
4.032,-6829.372558594,1.663155675,0
4.034,-6828.979980469,1.598825097,0
4.036,-6823.402832031,5.581281185,0
4.038,-6822.886718750,4.742571831,0
4.040,-6820.510742188,5.536415577,0
4.042,-6818.866210938,5.585094452,0
4.044,-6821.766601563,2.088180304,0
4.046,-6816.333496094,5.849655151,0
4.048,-6813.583007813,6.688957214,0
4.050,-6814.440917969,4.535454750,0
4.052,-6816.152343750,2.196202517,0
4.054,-6813.875488281,3.478946686,0
4.056,-6808.626464844,6.788583279,0
4.058,-6806.833007813,6.674784184,0
4.060,-6804.278808594,7.177806377,0
4.062,-6800.207519531,8.749253273,0
4.064,-6796.838867188,9.424853325,0
4.066,-6797.491210938,6.823115349,0
4.068,-6794.953125000,7.280741215,0
4.070,-6794.302734375,6.168814659,0
4.072,-6791.272949219,7.154087543,0
4.074,-6787.454101563,8.534408569,0
4.076,-6786.698242188,7.225967884,0
4.078,-6786.605957031,5.691744804,0
4.080,-6783.923828125,6.512871742,0
4.082,-6782.460449219,6.203896523,0
4.084,-6780.260742188,6.535912991,0
4.086,-6778.128906250,6.741313457,0
4.088,-6774.093261719,8.382148743,0
4.090,-6770.810058594,9.072750092,0
4.092,-6771.643554688,6.408536911,0
4.094,-6768.548828125,7.391262531,0
4.096,-6763.168457031,9.933400154,0
4.098,-6762.833007813,7.986617565,0
4.100,-6759.572753906,8.747611046,0
4.102,-6753.102050781,11.836224556,0
4.104,-6753.352539063,9.010912895,0
4.106,-6753.608886719,6.809087753,0
4.108,-6752.896484375,5.849787712,0
4.110,-6751.429199219,5.690999508,0
4.112,-6745.543457031,9.004315376,0
4.114,-6747.415039063,5.547535419,0
4.116,-6745.189453125,6.045678139,0
4.118,-6740.755371094,8.150922775,0
4.120,-6742.955566406,4.628063202,0
4.122,-6739.908203125,5.969712257,0
4.124,-6737.528808594,6.493758678,0
4.126,-6738.406250000,4.368216515,0
4.128,-6732.256347656,8.180722237,0
4.130,-6724.781250000,12.176517487,0
4.132,-6721.777832031,11.806352615,0
4.134,-6716.537597656,13.258349419,0
4.136,-6708.632812500,16.459787369,0
4.138,-6704.319824219,16.156698227,0
4.140,-6697.086425781,18.191829681,0
4.142,-6695.152832031,15.652824402,0
4.144,-6691.341308594,15.139018059,0
4.146,-6685.388183594,16.404859543,0
4.148,-6680.417968750,16.624588013,0
4.150,-6680.319335938,13.006743431,0
4.152,-6677.235839844,12.514632225,0
4.154,-6668.428222656,16.583721161,0
4.156,-6663.077636719,17.059631348,0
4.158,-6656.727539063,18.207580566,0
4.160,-6645.610839844,22.807323456,0
4.162,-6640.717773438,21.544713974,0
4.164,-6637.422851563,19.319311142,0
4.166,-6627.687988281,22.597478867,0
4.168,-6623.910644531,20.513240814,0
4.170,-6615.711914063,22.331203461,0
4.172,-6606.447753906,24.574066162,0
4.174,-6603.821777344,21.155296326,0
4.176,-6598.921875000,20.264816284,0
4.178,-6595.841308594,18.157478333,0
4.180,-6596.617675781,13.518156052,0
4.182,-6600.990722656,7.113029003,0
4.184,-6607.535156250,0.442169100,0
4.186,-6616.897949219,-6.938189983,0
4.188,-6625.051269531,-11.737712860,0
4.190,-6639.127929688,-20.077520370,0
4.192,-6660.847656250,-32.508621216,0
4.194,-6674.147460938,-35.628456116,0
4.196,-6687.145996094,-37.820198059,0
4.198,-6704.463867188,-42.884693146,0
4.200,-6718.278320313,-44.098892212,0
4.202,-6730.287109375,-43.638477325,0
4.204,-6740.591308594,-41.955131531,0
4.206,-6747.689941406,-38.152503967,0
4.208,-6759.013183594,-38.480579376,0
4.210,-6772.171386719,-40.162830353,0
4.212,-6780.083496094,-37.391330719,0
4.214,-6785.028808594,-32.927867889,0
4.216,-6792.563476563,-31.470653534,0
4.218,-6800.465820313,-30.622846603,0
4.220,-6807.393554688,-29.205831528,0
4.222,-6813.419921875,-27.402208328,0
4.224,-6814.375976563,-22.056276321,0
4.226,-6816.524414063,-18.825527191,0
4.228,-6825.016601563,-21.247095108,0
4.230,-6827.231933594,-18.248023987,0
4.232,-6829.216308594,-15.736307144,0
4.234,-6833.655273438,-15.691466331,0
4.236,-6830.183105469,-9.504014015,0
4.238,-6826.628906250,-4.627568245,0
4.240,-6829.412597656,-5.764194965,0
4.242,-6834.170410156,-8.183435440,0
4.244,-6833.036132813,-5.482674599,0
4.246,-6830.049804688,-1.941568851,0
4.248,-6830.098144531,-1.547791004,0
4.250,-6825.150878906,2.644090891,0
4.252,-6826.165039063,1.267619967,0
4.254,-6830.304687500,-2.233830690,0
4.256,-6830.018066406,-1.514591455,0
4.258,-6834.434570313,-4.612802029,0
4.260,-6840.061523438,-7.964226723,0
4.262,-6836.802246094,-3.659240723,0
4.264,-6832.276367188,0.674037993,0
4.266,-6836.164062500,-2.499391079,0
4.268,-6835.073730469,-1.096025825,0
4.270,-6835.744628906,-1.374278903,0
4.272,-6836.925781250,-1.987412572,0
4.274,-6835.230957031,-0.227850795,0
4.276,-6835.152832031,-0.116522491,0
4.278,-6831.451171875,2.788412094,0
4.280,-6828.703125000,4.306176662,0
4.282,-6829.473144531,2.750259161,0
4.284,-6826.048339844,4.802791595,0
4.286,-6825.586425781,4.094640732,0
4.288,-6826.973144531,2.106170416,0
4.290,-6825.987792969,2.404764891,0
4.292,-6827.959472656,0.336518496,0
4.294,-6830.733398438,-1.895474672,0
4.296,-6828.662109375,0.136785343,0
4.298,-6827.103515625,1.318413496,0
4.300,-6825.880859375,1.976335168,0
4.302,-6828.016601563,-0.123829782,0
4.304,-6827.125488281,0.596631050,0
4.306,-6823.856933594,3.006381989,0
4.308,-6824.894042969,1.531616449,0
4.310,-6820.906738281,4.292463303,0
4.312,-6822.066894531,2.436212301,0
4.314,-6827.679199219,-2.470167875,0
4.316,-6822.102539063,2.415864468,0
4.318,-6820.304687500,3.277497292,0
4.320,-6824.798828125,-0.946239293,0
4.322,-6822.436035156,1.101670980,0
4.324,-6817.885253906,4.396163464,0
4.326,-6817.068359375,4.054700851,0
4.328,-6820.424316406,0.543425798,0
4.330,-6822.241699219,-0.990925074,0
4.332,-6817.420898438,2.978830099,0
4.334,-6819.766113281,0.492609560,0
4.336,-6822.145019531,-1.466896534,0
4.338,-6819.786132813,0.693584442,0
4.340,-6816.912109375,2.774796247,0
4.342,-6815.574218750,3.198843718,0
4.344,-6813.498535156,4.102207184,0
4.346,-6816.274414063,1.031833291,0
4.348,-6818.759277344,-1.130411506,0
4.350,-6818.318359375,-0.536054373,0
4.352,-6820.649414063,-2.229891300,0
4.354,-6821.239257813,-2.193290949,0
4.356,-6819.703125000,-0.510951579,0
4.358,-6816.676269531,1.956833005,0
4.360,-6816.801269531,1.424646020,0
4.362,-6815.792480469,1.892702937,0
4.364,-6816.276855469,1.095298290,0
4.366,-6816.086425781,1.000057220,0
4.368,-6813.862304688,2.507410288,0
4.370,-6814.278808594,1.626534224,0
4.372,-6815.896972656,0.006461103,0
4.374,-6813.813964844,1.624937534,0
4.376,-6817.746093750,-1.794270635,0
4.378,-6822.562011719,-5.141417027,0
4.380,-6819.826660156,-1.871237993,0
4.382,-6820.933593750,-2.316172361,0
4.384,-6822.846679688,-3.289480448,0
4.386,-6818.381835938,0.914104939,0
4.388,-6813.767578125,4.299720287,0
4.390,-6814.204101563,3.004565001,0
4.392,-6813.185546875,3.129243612,0
4.394,-6813.549316406,2.150945663,0
4.396,-6815.937988281,-0.185114115,0
4.398,-6815.343261719,0.318835795,0
4.400,-6819.106445313,-2.678909302,0
4.402,-6823.818847656,-5.748806000,0
4.404,-6823.799316406,-4.456220150,0
4.406,-6820.632812500,-1.002876163,0
4.408,-6819.936523438,-0.238586336,0
4.410,-6820.347656250,-0.505373955,0
4.412,-6818.030273438,1.409316182,0
4.414,-6820.566894531,-0.876677871,0
4.416,-6820.175292969,-0.377180308,0
4.418,-6822.981445313,-2.476058006,0
4.420,-6824.932617188,-3.443353653,0
4.422,-6823.768066406,-1.772213936,0
4.424,-6820.690429688,1.015228391,0
4.426,-6822.301757813,-0.463776499,0
4.428,-6820.661621094,0.914904952,0
4.430,-6820.753417969,0.640417874,0
4.432,-6820.031250000,1.059610724,0
4.434,-6818.834472656,1.755205154,0
4.436,-6820.304199219,0.221763536,0
4.438,-6818.825195313,1.322841167,0
4.440,-6818.894042969,0.975402415,0
4.442,-6820.966308594,-0.852957666,0
4.444,-6820.820800781,-0.550370753,0
4.446,-6817.685058594,2.010930777,0
4.448,-6816.676269531,2.348669529,0
4.450,-6818.585449219,0.341746926,0
4.452,-6818.910644531,0.012865370,0
4.454,-6818.215820313,0.550484240,0
4.456,-6816.497070313,1.764985561,0
4.458,-6818.457031250,-0.151857287,0
4.460,-6817.473632813,0.646679580,0
4.462,-6815.826660156,1.783834696,0
4.464,-6818.595703125,-0.766250968,0
4.466,-6816.557617188,0.989520371,0
4.468,-6817.165527344,0.296720445,0
4.470,-6816.761230469,0.545305014,0
4.472,-6814.950683594,1.832301974,0
4.474,-6814.845703125,1.506803036,0
4.476,-6817.839355469,-1.156750083,0
4.478,-6820.046875000,-2.616314411,0
4.480,-6820.510253906,-2.395579576,0
4.482,-6818.936523438,-0.639028668,0
4.484,-6816.668457031,1.266898990,0
4.486,-6819.049804688,-0.866854131,0
4.488,-6819.602539063,-1.103888035,0
4.490,-6817.903808594,0.462499917,0
4.492,-6817.484863281,0.685434163,0
4.494,-6816.537109375,1.270438790,0
4.496,-6816.661132813,0.891702592,0
4.498,-6817.291992188,0.202660099,0
4.500,-6818.970214844,-1.147331238,0
4.502,-6822.007812500,-3.254917860,0
4.504,-6820.354492188,-1.245903254,0
4.506,-6815.888671875,2.504425287,0
4.508,-6816.873046875,1.182234168,0
4.510,-6822.958984375,-3.813902855,0
4.512,-6822.942382813,-2.953386784,0
4.514,-6817.506347656,1.930823445,0
4.516,-6818.353515625,0.842922688,0
4.518,-6819.146484375,0.038881712,0
4.520,-6817.733398438,1.129318714,0
4.522,-6817.269531250,1.239024162,0
4.524,-6818.072753906,0.338841468,0
4.526,-6814.349121094,3.159958601,0
4.528,-6815.708007813,1.400781870,0
4.530,-6812.267089844,3.765541553,0
4.532,-6811.020996094,3.897870302,0
4.534,-6811.041992188,3.015166998,0
4.536,-6810.884277344,2.467972517,0
4.538,-6813.321289063,0.024209624,0
4.540,-6819.626953125,-4.885589600,0
4.542,-6818.509765625,-2.931024790,0
4.544,-6817.505371094,-1.498579025,0
4.546,-6819.459472656,-2.685311079,0
4.548,-6818.611816406,-1.429040551,0
4.550,-6815.786621094,1.085566998,0
4.552,-6812.641601563,3.290385008,0
4.554,-6810.288574219,4.389414787,0
4.556,-6812.304199219,1.846200824,0
4.558,-6812.197265625,1.519162774,0
4.560,-6809.628906250,3.179094315,0
4.562,-6813.412109375,-0.469774783,0
4.564,-6812.050292969,0.693661928,0
4.566,-6807.924316406,3.748668432,0
4.568,-6816.086425781,-3.432610989,0
4.570,-6816.868652344,-3.278328180,0
4.572,-6810.833007813,2.144784689,0
4.574,-6815.279296875,-1.790204644,0
4.576,-6814.940429688,-1.128855348,0
4.578,-6814.296386719,-0.376919538,0
4.580,-6814.456542969,-0.417763859,0
4.582,-6812.842773438,0.930276394,0
4.584,-6813.931152344,-0.123165689,0
4.586,-6816.378906250,-1.999325633,0
4.588,-6810.238769531,3.220389366,0
4.590,-6808.001464844,4.244730473,0
4.592,-6814.056640625,-1.407789111,0
4.594,-6817.638671875,-3.881081343,0
4.596,-6818.519531250,-3.703578711,0
4.598,-6816.519042969,-1.324757218,0
4.600,-6812.978515625,1.723321795,0
4.602,-6813.476562500,0.953242004,0
4.604,-6811.658691406,2.155255795,0
4.606,-6810.444335938,2.620474339,0
4.608,-6815.294921875,-1.734225869,0
4.610,-6817.215332031,-2.842593431,0
4.612,-6818.994628906,-3.594682455,0
4.614,-6818.835449219,-2.672260284,0
4.616,-6814.572265625,1.237386227,0
4.618,-6816.344726563,-0.415842682,0
4.620,-6821.922363281,-4.661592960,0
4.622,-6818.770507813,-1.174421549,0
4.624,-6816.967285156,0.488968223,0
4.626,-6823.886230469,-5.000790119,0
4.628,-6823.889160156,-3.891964912,0
4.630,-6827.204101563,-5.605135441,0
4.632,-6829.887207031,-6.446365833,0
4.634,-6826.025390625,-2.009939671,0
4.636,-6821.573730469,1.899043679,0
4.638,-6828.377929688,-3.815044641,0
4.640,-6826.314941406,-1.363034248,0
4.642,-6820.120605469,3.757636786,0
4.644,-6825.433105469,-1.209178686,0
4.646,-6826.813964844,-2.014380932,0
4.648,-6826.745605469,-1.513423204,0
4.650,-6830.863281250,-4.379988670,0
4.652,-6833.135742188,-5.174095631,0
4.654,-6829.482421875,-1.182599068,0
4.656,-6821.753417969,5.091716290,0
4.658,-6823.424316406,2.660338879,0
4.660,-6832.976562500,-5.360276222,0
4.662,-6831.649902344,-3.137273550,0
4.664,-6825.022460938,2.714728117,0
4.666,-6831.209960938,-2.701104879,0
4.668,-6835.954101563,-5.790513515,0
4.670,-6834.343750000,-3.251343250,0
4.672,-6831.028320313,0.049815223,0
4.674,-6824.666015625,4.987249374,0
4.676,-6808.643554688,16.340791702,0
4.678,-6789.419433594,27.661106110,0
4.680,-6773.744628906,33.705078125,0
4.682,-6768.375000000,30.391254425,0
4.684,-6767.801757813,24.082998276,0
4.686,-6766.750488281,19.548679352,0
4.688,-6771.331542969,11.641484261,0
4.690,-6769.062500000,10.818976402,0
4.692,-6773.366210938,5.067554474,0
4.694,-6781.180175781,-2.136211157,0
4.696,-6777.500976563,1.200114489,0
4.698,-6770.727050781,6.201937199,0
4.700,-6770.469238281,5.024097919,0
4.702,-6767.850097656,5.944901943,0
4.704,-6763.568359375,7.953891754,0
4.706,-6764.123046875,5.754957199,0
4.708,-6772.879882813,-2.334914684,0
4.710,-6770.854980469,-0.241056919,0
4.712,-6766.231445313,3.408570528,0
4.714,-6773.289550781,-2.838583708,0
4.716,-6771.665527344,-0.944766581,0
4.718,-6777.777343750,-5.488275051,0
4.720,-6787.549316406,-11.868905067,0
4.722,-6786.205078125,-8.185573578,0
4.724,-6793.579589844,-12.102147102,0
4.726,-6798.278320313,-13.067474365,0
4.728,-6794.660156250,-7.349379063,0
4.730,-6789.493652344,-1.697518945,0
4.732,-6791.986816406,-3.259348869,0
4.734,-6792.406250000,-2.861223221,0
4.736,-6791.368652344,-1.418635011,0
4.738,-6793.903320313,-3.074447393,0
4.740,-6794.244140625,-2.656580687,0
4.742,-6791.645996094,-0.045241855,0
4.744,-6790.562500000,0.807352483,0
4.746,-6791.578613281,-0.162259594,0
4.748,-6795.036132813,-2.815464258,0
4.750,-6798.823242188,-5.135121822,0
4.752,-6794.589843750,-0.701308787,0
4.754,-6792.233886719,1.286911607,0
4.756,-6791.655273438,1.450779796,0
4.758,-6793.873046875,-0.596337974,0
4.760,-6798.085937500,-3.740618944,0
4.762,-6794.147460938,0.153996527,0
4.764,-6791.885742188,1.878922701,0
4.766,-6795.500000000,-1.349904180,0
4.768,-6794.926757813,-0.604065239,0
4.770,-6797.214843750,-2.249488831,0
4.772,-6797.099609375,-1.659656048,0
4.774,-6793.410644531,1.578151822,0
4.776,-6795.613281250,-0.485814571,0
4.778,-6796.259277344,-0.880129158,0
4.780,-6796.164062500,-0.610333622,0
4.782,-6795.945312500,-0.304538995,0
4.784,-6792.799316406,2.209863186,0
4.786,-6792.853027344,1.677047014,0
4.788,-6798.399902344,-3.010077953,0
4.790,-6816.616699219,-16.509229660,0
4.792,-6847.640136719,-36.969535828,0
4.794,-6881.777343750,-55.304580688,0
4.796,-6912.789550781,-67.134513855,0
4.798,-6921.851562500,-59.263134003,0
4.800,-6919.359863281,-44.154796600,0
4.802,-6910.583984375,-27.516727448,0
4.804,-6912.770996094,-23.102598190,0
4.806,-6924.823730469,-27.342660904,0
4.808,-6914.543457031,-13.270409584,0
4.810,-6913.971679688,-9.876770973,0
4.812,-6916.552246094,-9.688755989,0
4.814,-6850.487792969,43.847061157,0
4.816,-6722.600585938,133.569412231,0
4.818,-6534.350097656,250.301177979,0
4.820,-6252.448730469,413.929992676,0
4.822,-5962.486328125,547.464721680,0
4.824,-5676.323242188,648.368591309,0
4.826,-5296.971191406,799.328063965,0
4.828,-4922.292968750,913.104064941,0
4.830,-4705.740722656,878.610168457,0
4.832,-4631.330566406,741.228393555,0
4.834,-4605.111816406,596.895507813,0
4.836,-4707.037597656,384.971343994,0
4.838,-5011.189453125,62.858779907,0
4.840,-5299.856445313,-175.626327515,0
4.842,-5467.950195313,-267.334045410,0
4.844,-5620.720214844,-326.743347168,0
4.846,-5769.310058594,-369.699066162,0
4.848,-5924.180175781,-407.992889404,0
4.850,-6076.319824219,-435.652984619,0
4.852,-6199.595703125,-434.716674805,0
4.854,-6316.777832031,-429.248992920,0
4.856,-6416.131347656,-411.130218506,0
4.858,-6487.466308594,-375.245666504,0
4.860,-6537.475585938,-330.749450684,0
4.862,-6577.769042969,-288.585449219,0
4.864,-6615.280761719,-253.627761841,0
4.866,-6650.984375000,-225.032623291,0
4.868,-6675.241210938,-193.889099121,0
4.870,-6685.792480469,-159.007049561,0
4.872,-6692.617675781,-128.979156494,0
4.874,-6707.327148438,-111.756370544,0
4.876,-6711.445800781,-90.123771667,0
4.878,-6721.477050781,-77.897323608,0
4.880,-6739.483398438,-74.590827942,0
4.882,-6743.318847656,-60.997425079,0
4.884,-6748.720214844,-51.642868042,0
4.886,-6755.625488281,-45.537025452,0
4.888,-6754.214355469,-34.319419861,0
4.890,-6760.285156250,-31.414396286,0
4.892,-6764.282714844,-27.542335510,0
4.894,-6763.658691406,-20.935865402,0
4.896,-6765.798339844,-17.947402954,0
4.898,-6764.729003906,-13.127521515,0
4.900,-6763.969238281,-9.619257927,0
4.902,-6764.104492188,-7.586498260,0
4.904,-6763.643066406,-5.541770935,0
4.906,-6762.652343750,-3.539569378,0
4.908,-6765.137207031,-4.685656548,0
4.910,-6766.923828125,-5.034093857,0
4.912,-6766.369628906,-3.484178305,0
4.914,-6765.920898438,-2.360705614,0
4.916,-6764.829101563,-0.987131655,0
4.918,-6762.184082031,1.289579749,0
4.920,-6760.809082031,2.072433472,0
4.922,-6755.930175781,5.406350613,0
4.924,-6755.108886719,4.843957901,0
4.926,-6757.313964844,2.052276850,0
4.928,-6757.487792969,1.460871696,0
4.930,-6759.679199219,-0.568078279,0
4.932,-6755.798339844,2.576468229,0
4.934,-6750.036132813,6.485671043,0
4.936,-6750.510742188,4.675008297,0
4.938,-6752.952148438,1.737495780,0
4.940,-6750.807617188,3.019086123,0
4.942,-6747.857910156,4.642346859,0
4.944,-6745.139648438,5.724799156,0
4.946,-6742.174316406,6.759116650,0
4.948,-6742.165039063,5.264042377,0
4.950,-6739.623535156,6.071057320,0
4.952,-6738.190429688,5.836554527,0
4.954,-6738.498535156,4.299784660,0
4.956,-6736.572265625,4.842483521,0
4.958,-6735.972167969,4.233015060,0
4.960,-6733.928222656,4.882017136,0
4.962,-6729.041015625,7.598069668,0
4.964,-6727.362792969,7.215012550,0
4.966,-6726.655273438,6.161954880,0
4.968,-6725.280761719,5.861371517,0
4.970,-6720.627929688,8.177871704,0
4.972,-6720.220214844,6.677562714,0
4.974,-6719.591308594,5.682464600,0
4.976,-6714.030761719,8.744698524,0
4.978,-6714.045410156,6.789804935,0
4.980,-6715.229003906,4.360161304,0
4.982,-6711.439453125,6.338883400,0
4.984,-6709.773925781,6.225560665,0
4.986,-6708.080078125,6.159470081,0
4.988,-6704.728515625,7.397162437,0
4.990,-6702.354003906,7.600051403,0
4.992,-6699.571777344,8.075322151,0
4.994,-6697.625976563,7.793856144,0
4.996,-6694.745117188,8.302702904,0
4.998,-6693.559082031,7.379886150,0
5.000,-6694.071777344,5.341141224,0
5.002,-6691.589843750,6.084310055,0
5.004,-6693.191406250,3.486777067,0
5.006,-6696.527832031,0.116877519,0
5.008,-6691.318359375,4.142441273,0
5.010,-6688.426269531,5.471218586,0
5.012,-6683.829589844,7.830603123,0
5.014,-6681.420898438,7.963692665,0
5.016,-6680.813476563,6.666355133,0
5.018,-6677.865234375,7.478131294,0
5.020,-6671.613281250,10.678771019,0
5.022,-6672.062988281,7.955676556,0
5.024,-6672.711425781,5.683467388,0
5.026,-6667.335449219,8.601490974,0
5.028,-6665.997558594,7.730836868,0
5.030,-6668.399414063,4.144695282,0
5.032,-6662.967773438,7.448124409,0
5.034,-6657.348632813,10.163313866,0
5.036,-6652.492187500,11.681789398,0
5.038,-6646.168457031,14.003973961,0
5.040,-6643.938964844,12.625842094,0
5.042,-6641.716796875,11.548658371,0
5.044,-6637.405273438,12.335289001,0
5.046,-6633.814453125,12.386931419,0
5.048,-6630.763183594,12.007338524,0
5.050,-6623.309570313,15.136012077,0
5.052,-6620.117187500,14.255165100,0
5.054,-6618.576660156,12.285326004,0
5.056,-6611.840332031,14.794390678,0
5.058,-6607.174804688,15.135502815,0
5.060,-6602.584960938,15.341567039,0
5.062,-6593.964355469,18.637067795,0
5.064,-6588.014160156,19.123266220,0
5.066,-6580.937988281,20.377088547,0
5.068,-6575.078125000,20.406373978,0
5.070,-6568.306152344,21.138326645,0
5.072,-6557.208007813,25.072422028,0
5.074,-6549.119140625,25.791898727,0
5.076,-6544.345214844,23.773040771,0
5.078,-6539.793457031,22.029985428,0
5.080,-6537.884277344,18.619333267,0
5.082,-6540.091308594,12.764674187,0
5.084,-6541.817871094,8.585335732,0
5.086,-6548.832519531,1.221384645,0
5.088,-6558.136230469,-6.286121845,0
5.090,-6567.733886719,-12.353825569,0
5.092,-6580.690429688,-19.685680389,0
5.094,-6589.852050781,-22.436403275,0
5.096,-6603.768554688,-28.273927689,0
5.098,-6618.881835938,-33.745189667,0
5.100,-6627.229980469,-32.738803864,0
5.102,-6635.264160156,-31.712028503,0
5.104,-6650.470214844,-36.491497040,0
5.106,-6665.062988281,-39.731506348,0
5.108,-6675.006347656,-38.635749817,0
5.110,-6684.715332031,-37.600761414,0
5.112,-6693.433105469,-36.025119781,0
5.114,-6704.308105469,-36.477230072,0
5.116,-6715.816894531,-37.322128296,0
5.118,-6723.281738281,-34.833992004,0
5.120,-6727.516601563,-30.386512756,0
5.122,-6729.798339844,-25.408304214,0
5.124,-6733.784179688,-22.861759186,0
5.126,-6738.824707031,-21.701580048,0
5.128,-6738.177734375,-16.375295639,0
5.130,-6739.893554688,-14.070899010,0
5.132,-6742.908203125,-13.288395882,0
5.134,-6743.808105469,-11.035240173,0
5.136,-6746.811035156,-10.918346405,0
5.138,-6749.674804688,-10.719367981,0
5.140,-6747.488769531,-6.637120724,0
5.142,-6749.968261719,-7.090578556,0
5.144,-6752.751464844,-7.679481983,0
5.146,-6751.166992188,-4.740330696,0
5.148,-6749.345703125,-2.270419121,0
5.150,-6752.665527344,-4.348001480,0
5.152,-6752.148925781,-2.979995489,0
5.154,-6747.997558594,0.911109149,0
5.156,-6749.041992188,-0.103481092,0
5.158,-6750.424804688,-1.155979037,0
5.160,-6748.075195313,0.928007960,0
5.162,-6750.587890625,-1.232343554,0
5.164,-6755.592285156,-4.850741386,0
5.166,-6753.523437500,-2.163746119,0
5.168,-6752.613281250,-0.974965513,0
5.170,-6751.977539063,-0.263683647,0
5.172,-6747.575195313,3.218843222,0
5.174,-6749.704589844,0.847326219,0
5.176,-6750.653808594,-0.079246141,0
5.178,-6748.015136719,1.990634084,0
5.180,-6751.353027344,-1.047678590,0
5.182,-6754.005371094,-2.877840996,0
5.184,-6747.384765625,2.911047220,0
5.186,-6745.609863281,3.644600391,0
5.188,-6747.111816406,1.666499019,0
5.190,-6747.156738281,1.260916948,0
5.192,-6746.088378906,1.811633468,0
5.194,-6746.447265625,1.129987240,0
5.196,-6745.646972656,1.501426339,0
5.198,-6743.130371094,3.124996424,0
5.200,-6739.091796875,5.571425438,0
5.202,-6741.649902344,2.343658924,0
5.204,-6743.918945313,0.058234040,0
5.206,-6744.376464844,-0.310636938,0
5.208,-6740.712890625,2.607709169,0
5.210,-6741.322753906,1.554013491,0
5.212,-6745.644531250,-2.152612686,0
5.214,-6746.598144531,-2.415803671,0
5.216,-6746.904785156,-2.117739439,0
5.218,-6746.279785156,-1.160891891,0
5.220,-6741.789550781,2.589295626,0
5.222,-6743.781250000,0.465137511,0
5.224,-6746.829101563,-2.008950949,0
5.226,-6743.491699219,1.033163786,0
5.228,-6743.945800781,0.450432509,0
5.230,-6745.244628906,-0.659721732,0
5.232,-6743.026367188,1.212277293,0
5.234,-6741.232421875,2.337964535,0
5.236,-6742.221191406,1.049209476,0
5.238,-6738.399414063,3.788543701,0
5.240,-6740.329101563,1.445843816,0
5.242,-6742.504882813,-0.567558110,0
5.244,-6738.024414063,3.043367863,0
5.246,-6740.630371094,0.339831322,0
5.248,-6740.473144531,0.386863858,0
5.250,-6743.863281250,-2.335796833,0
5.252,-6745.504882813,-3.093487024,0
5.254,-6743.147460938,-0.572752595,0
5.256,-6746.441894531,-3.007473707,0
5.258,-6751.243652344,-6.074101448,0
5.260,-6747.436035156,-1.762623429,0
5.262,-6744.109863281,1.216163516,0
5.264,-6742.339843750,2.322602034,0
5.266,-6744.821777344,-0.124232620,0
5.268,-6746.727050781,-1.578191280,0
5.270,-6743.823242188,1.030836701,0
5.272,-6742.364257813,1.936524868,0
5.274,-6744.923339844,-0.484159827,0
5.276,-6744.286621094,0.118822359,0
5.278,-6745.194824219,-0.614017069,0
5.280,-6743.926757813,0.508663952,0
5.282,-6742.829589844,1.248963118,0
5.284,-6746.715820313,-2.051337719,0
5.286,-6747.151367188,-1.934259772,0
5.288,-6746.119628906,-0.701850235,0
5.290,-6743.589843750,1.421597362,0
5.292,-6744.613281250,0.309882164,0
5.294,-6749.530761719,-3.583673000,0
5.296,-6746.425292969,-0.371922731,0
5.298,-6746.212890625,-0.123935454,0
5.300,-6747.250976563,-0.903815806,0
5.302,-6746.239746094,0.083493650,0
5.304,-6746.260253906,0.048718460,0
5.306,-6746.358886719,-0.038636096,0
5.308,-6745.421386719,0.699023783,0
5.310,-6743.550292969,1.999040365,0
5.312,-6741.470214844,3.172575712,0
5.314,-6740.897460938,2.913039684,0
5.316,-6741.275390625,1.971715093,0
5.318,-6744.871582031,-1.263632059,0
5.320,-6743.302734375,0.237377420,0
5.322,-6737.873046875,4.407917976,0
5.324,-6740.403808594,1.459773540,0
5.326,-6744.939453125,-2.392318487,0
5.328,-6746.331054688,-2.942817450,0
5.330,-6745.081054688,-1.316570163,0
5.332,-6746.861328125,-2.408890724,0
5.334,-6745.990722656,-1.196176767,0
5.336,-6742.139648438,2.064967394,0
5.338,-6742.104980469,1.632796049,0
5.340,-6746.083007813,-1.824074984,0
5.342,-6747.042480469,-2.165010691,0
5.344,-6749.014160156,-3.217218399,0
5.346,-6747.642089844,-1.435275316,0
5.348,-6747.143066406,-0.728104353,0
5.350,-6746.629882813,-0.167023733,0
5.352,-6745.462402344,0.778094530,0
5.354,-6746.441894531,-0.156537727,0
5.356,-6746.352539063,-0.052353282,0
5.358,-6746.979003906,-0.528191566,0
5.360,-6747.943847656,-1.161064386,0
5.362,-6746.029296875,0.586006403,0
5.364,-6744.470703125,1.667933702,0
5.366,-6746.246093750,-0.083442904,0
5.368,-6749.070800781,-2.261794090,0
5.370,-6747.293457031,-0.376802772,0
5.372,-6746.302246094,0.477801800,0
5.374,-6748.043457031,-0.982766271,0
5.376,-6746.558593750,0.390737534,0
5.378,-6747.207519531,-0.201105461,0
5.380,-6746.483886719,0.406442612,0
5.382,-6747.012207031,-0.094808370,0
5.384,-6746.915527344,0.001465550,0
5.386,-6746.046386719,0.677096486,0
5.388,-6746.114257813,0.474062443,0
5.390,-6746.196777344,0.304393917,0
5.392,-6747.333007813,-0.646809340,0
5.394,-6747.808105469,-0.872618437,0
5.396,-6745.129394531,1.404643297,0
5.398,-6743.560058594,2.312980890,0
5.400,-6744.078125000,1.396135330,0
5.402,-6743.762695313,1.331082821,0
5.404,-6741.293457031,2.955734730,0
5.406,-6742.809082031,1.120149136,0
5.408,-6743.724121094,0.159572572,0
5.410,-6741.951171875,1.503229856,0
5.412,-6741.862304688,1.238180876,0
5.414,-6741.104003906,1.552598000,0
5.416,-6739.327636719,2.589144468,0
5.418,-6742.605468750,-0.535427749,0
5.420,-6743.920410156,-1.439006329,0
5.422,-6744.437500000,-1.521632075,0
5.424,-6741.780761719,0.882920980,0
5.426,-6741.691406250,0.756158471,0
5.428,-6740.780273438,1.296748877,0
5.430,-6738.647949219,2.666945934,0
5.432,-6738.764160156,1.983870983,0
5.434,-6737.049804688,2.876669168,0
5.436,-6740.928710938,-0.779498994,0
5.438,-6737.892578125,1.755032778,0
5.440,-6736.264648438,2.631122589,0
5.442,-6741.255859375,-1.835502267,0
5.444,-6744.987304688,-4.329858780,0
5.446,-6741.773925781,-0.868596911,0
5.448,-6737.117187500,2.946505785,0
5.450,-6737.982910156,1.618424535,0
5.452,-6738.561523438,0.808768809,0
5.454,-6736.173828125,2.486006021,0
5.456,-6737.171386719,1.157629967,0
5.458,-6737.203613281,0.875162601,0
5.460,-6734.595214844,2.709456921,0
5.462,-6733.811523438,2.717122316,0
5.464,-6734.160644531,1.841607690,0
5.466,-6734.854980469,0.892440021,0
5.468,-6732.555664063,2.482272625,0
5.470,-6732.826171875,1.720342755,0
5.472,-6733.065917969,1.151366472,0
5.474,-6729.020996094,4.041480541,0
5.476,-6731.051757813,1.563957095,0
5.478,-6731.026367188,1.236195087,0
5.480,-6730.698730469,1.216172934,0
5.482,-6734.924804688,-2.341066122,0
5.484,-6732.448242188,0.105678797,0
5.486,-6730.979003906,1.224801302,0
5.488,-6733.668945313,-1.139662743,0
5.490,-6731.342773438,0.922802389,0
5.492,-6731.017578125,0.970749140,0
5.494,-6731.434082031,0.431220949,0
5.496,-6727.718261719,3.225229025,0
5.498,-6731.622558594,-0.528220057,0
5.500,-6735.327636719,-3.292536497,0
5.502,-6728.992187500,2.366711617,0
5.504,-6727.452636719,3.038301468,0
5.506,-6730.894042969,-0.313647211,0
5.508,-6731.368164063,-0.612607121,0
5.510,-6731.994140625,-0.963253498,0
5.512,-6727.128906250,3.034914017,0
5.514,-6726.342773438,2.971854210,0
5.516,-6727.766601563,1.203821182,0
5.518,-6724.771484375,3.265725613,0
5.520,-6723.115722656,3.827956438,0
5.522,-6727.331542969,-0.301772892,0
5.524,-6733.123046875,-4.738985062,0
5.526,-6729.707031250,-1.029060483,0
5.528,-6726.720703125,1.522495985,0
5.530,-6723.641113281,3.579337120,0
5.532,-6721.528320313,4.427198410,0
5.534,-6722.281250000,2.857536077,0
5.536,-6730.976562500,-4.540472984,0
5.538,-6735.210937500,-6.824633598,0
5.540,-6728.325195313,0.047430109,0
5.542,-6723.131835938,4.076114655,0
5.544,-6724.462402344,2.135242701,0
5.546,-6724.756347656,1.432329178,0
5.548,-6724.334472656,1.441970706,0
5.550,-6725.494628906,0.219116852,0
5.552,-6724.637207031,0.837436914,0
5.554,-6721.456542969,3.125087738,0
5.556,-6722.221679688,1.835718632,0
5.558,-6727.408203125,-2.606427908,0
5.560,-6728.869628906,-3.163888454,0
5.562,-6728.202148438,-1.941291451,0
5.564,-6730.706054688,-3.457472086,0
5.566,-6734.068359375,-5.304057598,0
5.568,-6731.890136719,-2.431326866,0
5.570,-6728.930664063,0.410886705,0
5.572,-6731.501953125,-1.680420756,0
5.574,-6734.050781250,-3.289276123,0
5.576,-6732.798828125,-1.584471703,0
5.578,-6731.560546875,-0.269605517,0
5.580,-6735.308593750,-3.124542475,0
5.582,-6737.725097656,-4.309827328,0
5.584,-6739.013671875,-4.354329109,0
5.586,-6744.380859375,-7.560867310,0
5.588,-6747.374023438,-8.208524704,0
5.590,-6739.887695313,-0.561877608,0
5.592,-6735.138671875,3.256617785,0
5.594,-6735.154785156,2.520482540,0
5.596,-6738.846679688,-0.911292315,0
5.598,-6748.457031250,-8.183143616,0
5.600,-6754.666503906,-11.194200516,0
5.602,-6760.779296875,-13.460783958,0
5.604,-6757.358886719,-7.809127331,0
5.606,-6743.886718750,4.404407501,0
5.608,-6730.148925781,14.110367775,0
5.610,-6719.254882813,19.447813034,0
5.612,-6712.991699219,19.997138977,0
5.614,-6704.753417969,21.960515976,0
5.616,-6699.932617188,20.829710007,0
5.618,-6699.541015625,16.505104065,0
5.620,-6696.146972656,15.477062225,0
5.622,-6698.789550781,9.982416153,0
5.624,-6698.418945313,8.052151680,0
5.626,-6693.812500000,9.845395088,0
5.628,-6690.145019531,10.509710312,0
5.630,-6690.750488281,7.703395844,0
5.632,-6689.255859375,7.153801441,0
5.634,-6692.073730469,3.372366190,0
5.636,-6698.933105469,-2.712049007,0
5.638,-6700.049316406,-2.977332354,0
5.640,-6697.327636719,-0.199033633,0
5.642,-6698.431640625,-1.013536811,0
5.644,-6696.751953125,0.518222451,0
5.646,-6697.396972656,-0.098748103,0
5.648,-6697.290039063,0.006685743,0
5.650,-6699.804199219,-1.950480223,0
5.652,-6708.536621094,-8.308589935,0
5.654,-6716.905761719,-12.971539497,0
5.656,-6718.605957031,-11.411278725,0
5.658,-6719.451171875,-9.532432556,0
5.660,-6719.151855469,-7.181517601,0
5.662,-6718.223632813,-4.863607883,0
5.664,-6715.919433594,-1.990511894,0
5.666,-6716.327636719,-1.865808606,0
5.668,-6716.180175781,-1.336264491,0
5.670,-6712.717773438,1.653578043,0
5.672,-6709.219238281,4.007124901,0
5.674,-6710.436035156,2.170331717,0
5.676,-6712.965820313,-0.279635251,0
5.678,-6710.138671875,1.981418729,0
5.680,-6710.085937500,1.581953883,0
5.682,-6710.547851563,0.871226609,0
5.684,-6709.349609375,1.609750748,0
5.686,-6707.978027344,2.318635941,0
5.688,-6713.150390625,-2.219621658,0
5.690,-6711.631835938,-0.545159161,0
5.692,-6710.249023438,0.651314259,0
5.694,-6708.246582031,2.064010143,0
5.696,-6707.153320313,2.455645561,0
5.698,-6709.621093750,-0.009502457,0
5.700,-6706.395019531,2.502032757,0
5.702,-6703.543945313,4.163375378,0
5.704,-6705.947265625,1.368989587,0
5.706,-6705.206542969,1.640745282,0
5.708,-6702.391601563,3.465651512,0
5.710,-6698.781250000,5.503209114,0
5.712,-6699.690429688,3.573141813,0
5.714,-6700.220703125,2.366590023,0
5.716,-6698.640136719,3.069994211,0
5.718,-6703.768554688,-1.600947261,0
5.720,-6725.743164063,-18.336027145,0
5.722,-6753.525878906,-35.869808197,0
5.724,-6787.822753906,-54.573421478,0
5.726,-6822.961914063,-69.775718689,0
5.728,-6834.788574219,-63.467437744,0
5.730,-6837.090820313,-51.153575897,0
5.732,-6834.163085938,-37.508407593,0
5.734,-6839.395996094,-33.242904663,0
5.736,-6849.918945313,-34.039627075,0
5.738,-6840.480957031,-19.134265900,0
5.740,-6851.162597656,-23.189899445,0
5.742,-6856.818847656,-22.435737610,0
5.744,-6781.703125000,40.972969055,0
5.746,-6671.191406250,117.819595337,0
5.748,-6468.872558594,248.993453979,0
5.750,-6167.187988281,428.299743652,0
5.752,-5887.066406250,550.986938477,0
5.754,-5578.732910156,668.351806641,0
5.756,-5185.101074219,825.976684570,0
5.758,-4788.253906250,951.072570801,0
5.760,-4517.444824219,950.340087891,0
5.762,-4438.922851563,800.215698242,0
5.764,-4449.362304688,614.262390137,0
5.766,-4552.878417969,397.242218018,0
5.768,-4830.914062500,92.714714050,0
5.770,-5069.875488281,-113.745712280,0
5.772,-5220.027832031,-205.251480103,0
5.774,-5428.587402344,-321.848937988,0
5.776,-5611.130859375,-392.299865723,0
5.778,-5754.623535156,-416.722442627,0
5.780,-5922.338867188,-454.556549072,0
5.782,-6083.728515625,-479.063323975,0
5.784,-6219.406250000,-478.125610352,0
5.786,-6324.906250000,-453.925109863,0
5.788,-6400.864257813,-412.125885010,0
5.790,-6452.576171875,-360.758270264,0
5.792,-6495.985839844,-314.348541260,0
5.794,-6542.898925781,-280.977661133,0
5.796,-6575.652832031,-244.010086060,0
5.798,-6586.550781250,-198.259460449,0
5.800,-6595.139648438,-160.879943848,0
5.802,-6610.443847656,-137.030212402,0
5.804,-6627.882812500,-120.141204834,0
5.806,-6639.143554688,-102.200233459,0
5.808,-6650.514648438,-88.332008362,0
5.810,-6661.643554688,-77.357650757,0
5.812,-6669.738769531,-66.462226868,0
5.814,-6677.224121094,-57.514312744,0
5.816,-6680.371093750,-47.180206299,0
5.818,-6681.260253906,-37.386840820,0
5.820,-6686.172363281,-32.898593903,0
5.822,-6690.457519531,-28.920307159,0
5.824,-6692.990722656,-24.463657379,0
5.826,-6696.341308594,-21.633043289,0
5.828,-6698.507812500,-18.510711670,0
5.830,-6701.503417969,-16.726652145,0
5.832,-6706.731445313,-17.075792313,0
5.834,-6701.254882813,-9.021450996,0
5.836,-6701.028320313,-6.840558529,0
5.838,-6701.426269531,-5.629774094,0
5.840,-6700.194824219,-3.420671225,0
5.842,-6701.361328125,-3.567874908,0
5.844,-6699.716308594,-1.495445490,0
5.846,-6697.547363281,0.523558259,0
5.848,-6702.908203125,-3.761940241,0
5.850,-6704.611816406,-4.251132965,0
5.852,-6701.744628906,-1.076494098,0
5.854,-6698.794433594,1.457501292,0
5.856,-6695.149902344,3.968147278,0
5.858,-6696.516601563,2.023371696,0
5.860,-6701.706054688,-2.462547779,0
5.862,-6700.462890625,-0.948341787,0
5.864,-6698.515136719,0.777415633,0
5.866,-6697.438476563,1.442068338,0
5.868,-6696.076171875,2.181080103,0
5.870,-6696.314453125,1.511053681,0
5.872,-6692.878417969,3.847426653,0
5.874,-6688.194335938,6.635683537,0
5.876,-6689.448242188,4.185791492,0
5.878,-6689.254882813,3.405895472,0
5.880,-6686.343750000,4.913065434,0
5.882,-6691.707519531,-0.350482076,0
5.884,-6691.649414063,-0.227153078,0
5.886,-6686.891601563,3.523556471,0
5.888,-6688.049316406,1.840192795,0
5.890,-6686.349121094,2.753591776,0
5.892,-6685.941406250,2.458898306,0
5.894,-6686.567871094,1.424880624,0
5.896,-6682.741210938,4.084727764,0
5.898,-6680.632812500,4.816738605,0
5.900,-6680.628417969,3.749704838,0
5.902,-6678.883789063,4.273394108,0
5.904,-6678.634765625,3.517217875,0
5.906,-6680.512695313,1.275043249,0
5.908,-6681.626953125,0.124985047,0
5.910,-6676.384277344,4.174863338,0
5.912,-6675.745117188,3.744080544,0
5.914,-6676.947265625,1.977335453,0
5.916,-6675.926757813,2.331400871,0
5.918,-6674.960937500,2.564474583,0
5.920,-6673.623535156,3.034667492,0
5.922,-6671.872558594,3.722391367,0
5.924,-6673.956542969,1.274184585,0
5.926,-6669.840820313,4.192196846,0
5.928,-6665.166503906,6.896129608,0
5.930,-6667.811035156,3.306726694,0
5.932,-6667.197753906,3.048810482,0
5.934,-6672.006347656,-1.368656754,0
5.936,-6670.298828125,0.263551027,0
5.938,-6665.975585938,3.567532778,0
5.940,-6666.768066406,2.158117771,0
5.942,-6666.984863281,1.509887815,0
5.944,-6663.083984375,4.208361149,0
5.946,-6663.217285156,3.169658422,0
5.948,-6664.875976563,1.174867868,0
5.950,-6663.675781250,1.847272158,0
5.952,-6663.031738281,1.937799096,0
5.954,-6659.325683594,4.389688492,0
5.956,-6656.822753906,5.360632896,0
5.958,-6658.549804688,2.826166868,0
5.960,-6656.941406250,3.449052095,0
5.962,-6654.435546875,4.631690979,0
5.964,-6653.490722656,4.337130070,0
5.966,-6650.289550781,5.862980843,0
5.968,-6646.599121094,7.430449486,0
5.970,-6643.941894531,7.845889091,0
5.972,-6641.421386719,8.062628746,0
5.974,-6637.792480469,9.093214035,0
5.976,-6632.857910156,10.910237312,0
5.978,-6629.739257813,10.911327362,0
5.980,-6628.464355469,9.477984428,0
5.982,-6623.133789063,11.517529488,0
5.984,-6615.590332031,14.825124741,0
5.986,-6609.673828125,16.132087708,0
5.988,-6605.629882813,15.692499161,0
5.990,-6601.562500000,15.368491173,0
5.992,-6596.176757813,16.142002106,0
5.994,-6587.083496094,19.627069473,0
5.996,-6578.657226563,21.819015503,0
5.998,-6572.230957031,21.968183517,0
6.000,-6562.144042969,24.931386948,0
6.002,-6551.036621094,28.029857635,0
6.004,-6542.638183594,28.332887650,0
6.006,-6531.651367188,30.581573486,0
6.008,-6522.281250000,31.073215485,0
6.010,-6517.766601563,27.679191589,0
6.012,-6515.590820313,23.220199585,0
6.014,-6512.267578125,20.644393921,0
6.016,-6514.889648438,14.017420769,0
6.018,-6520.329589844,6.671157360,0
6.020,-6528.328125000,-1.032419801,0
6.022,-6537.192871094,-7.697736263,0
6.024,-6544.007324219,-11.287178040,0
6.026,-6554.111328125,-16.637371063,0
6.028,-6567.137207031,-23.071065903,0
6.030,-6581.291992188,-28.952939987,0
6.032,-6588.245117188,-27.926706314,0
6.034,-6600.606933594,-31.335134506,0
6.036,-6613.378906250,-34.304912567,0
6.038,-6622.202148438,-33.543777466,0
6.040,-6631.302734375,-33.167343140,0
6.042,-6635.312500000,-28.915008545,0
6.044,-6645.363281250,-30.306304932,0
6.046,-6653.642089844,-30.010593414,0
6.048,-6659.569335938,-27.951276779,0
6.050,-6667.188964844,-27.665752411,0
6.052,-6674.166015625,-26.944198608,0
6.054,-6675.182617188,-21.747051239,0
6.056,-6679.407714844,-20.200138092,0
6.058,-6684.826171875,-19.925218582,0
6.060,-6687.721679688,-17.749481201,0
6.062,-6690.715820313,-16.133413315,0
6.064,-6692.758789063,-14.136982918,0
6.066,-6692.939453125,-11.135888100,0
6.068,-6695.521972656,-10.669695854,0
6.070,-6696.966796875,-9.422328949,0
6.072,-6696.436523438,-6.916088581,0
6.074,-6697.769042969,-6.415588379,0
6.076,-6696.926757813,-4.334410191,0
6.078,-6696.274414063,-2.863966942,0
6.080,-6694.144531250,-0.570785522,0
6.082,-6694.768554688,-0.929481447,0
6.084,-6696.097656250,-1.756665230,0
6.086,-6698.631835938,-3.337388515,0
6.088,-6698.087402344,-2.171941280,0
6.090,-6696.820800781,-0.704213083,0
6.092,-6694.439941406,1.303869128,0
6.094,-6695.749023438,-0.003855197,0
6.096,-6697.973144531,-1.733084917,0
6.098,-6696.694824219,-0.353655249,0
6.100,-6695.555664063,0.611178815,0
6.102,-6692.040527344,3.209283590,0
6.104,-6690.023437500,4.064876080,0
6.106,-6692.962402344,0.875748932,0
6.108,-6691.729980469,1.639461994,0
6.110,-6690.945312500,1.885485768,0
6.112,-6692.026855469,0.625347197,0
6.114,-6686.865722656,4.500308514,0
6.116,-6685.175292969,4.815193176,0
6.118,-6685.742675781,3.303764105,0
6.120,-6685.434570313,2.809045553,0
6.122,-6686.868164063,1.069761753,0
6.124,-6686.646484375,1.004705787,0
6.126,-6691.401367188,-2.916939974,0
6.128,-6693.494140625,-3.896327734,0
6.130,-6685.887207031,2.885895252,0
6.132,-6685.579101563,2.484122038,0
6.134,-6692.424804688,-3.392336369,0
6.136,-6689.331542969,-0.232337579,0
6.138,-6687.543945313,1.209605932,0
6.140,-6689.953613281,-0.933520079,0
6.142,-6691.847656250,-2.199121237,0
6.144,-6692.391113281,-2.133012295,0
6.146,-6691.240722656,-0.764269590,0
6.148,-6690.580078125,-0.080776535,0
6.150,-6691.495605469,-0.774588704,0
6.152,-6691.304687500,-0.454262614,0
6.154,-6690.618164063,0.180710793,0
6.156,-6689.162109375,1.273266912,0
6.158,-6691.200195313,-0.594925225,0
6.160,-6692.108886719,-1.169738173,0
6.162,-6688.245605469,2.095005274,0
6.164,-6689.306152344,0.804743469,0
6.166,-6693.312988281,-2.490523815,0
6.168,-6692.820312500,-1.554017186,0
6.170,-6694.416503906,-2.450064182,0
6.172,-6695.854492188,-3.023944616,0
6.174,-6694.739257813,-1.484533906,0
6.176,-6695.984863281,-2.123523474,0
6.178,-6694.439453125,-0.449430734,0
6.180,-6690.738769531,2.528719664,0
6.182,-6692.188964844,0.838647246,0
6.184,-6694.085937500,-0.823081255,0
6.186,-6690.154296875,2.417680979,0
6.188,-6691.148437500,1.107182622,0
6.190,-6693.049804688,-0.617486179,0
6.192,-6691.603027344,0.644902050,0
6.194,-6694.398925781,-1.673074722,0
6.196,-6695.560546875,-2.204696894,0
6.198,-6695.982910156,-2.043220758,0
6.200,-6696.043457031,-1.636204362,0
6.202,-6695.613769531,-0.938574672,0
6.204,-6694.281250000,0.306562364,0
6.206,-6693.222656250,1.061953664,0
6.208,-6694.599121094,-0.244820878,0
6.210,-6694.897949219,-0.422631204,0
6.212,-6692.433593750,1.587764621,0
6.214,-6696.130859375,-1.640727639,0
6.216,-6695.228027344,-0.573734581,0
6.218,-6695.423339844,-0.598375082,0
6.220,-6696.683593750,-1.445285678,0
6.222,-6697.109863281,-1.455827475,0
6.224,-6698.698730469,-2.367851019,0
6.226,-6687.101074219,7.178359985,0
6.228,-6685.523437500,6.810120106,0
6.230,-6701.820312500,-7.378181458,0
6.232,-6700.254882813,-4.521116734,0
6.234,-6696.892089844,-0.900764525,0
6.236,-6697.169433594,-0.916640401,0
6.238,-6697.468261719,-0.945293009,0
6.240,-6697.835937500,-1.021097422,0
6.242,-6701.001464844,-3.256362200,0
6.244,-6703.182128906,-4.228598595,0
6.246,-6704.964355469,-4.675132275,0
6.248,-6704.553222656,-3.316388130,0
6.250,-6701.495117188,-0.200961173,0
6.252,-6700.402832031,0.693499446,0
6.254,-6702.655761719,-1.212823510,0
6.256,-6704.712890625,-2.543376446,0
6.258,-6701.628417969,0.420800894,0
6.260,-6700.975585938,0.835173607,0
6.262,-6702.415039063,-0.470080465,0
6.264,-6703.418457031,-1.145877242,0
6.266,-6703.737304688,-1.139396191,0
6.268,-6701.377441406,0.949398756,0
6.270,-6703.242675781,-0.712633967,0
6.272,-6706.688964844,-3.234536409,0
6.274,-6707.618164063,-3.238242388,0
6.276,-6707.196777344,-2.190839291,0
6.278,-6703.834472656,0.910947561,0
6.280,-6702.525390625,1.726505160,0
6.282,-6704.554687500,-0.235386729,0
6.284,-6703.569335938,0.583351195,0
6.286,-6702.529296875,1.262629032,0
6.288,-6705.508300781,-1.334844828,0
6.290,-6707.906738281,-2.903742075,0
6.292,-6708.119140625,-2.423606157,0
6.294,-6705.792968750,-0.075902373,0
6.296,-6705.503906250,0.165923521,0
6.298,-6709.010253906,-2.598122358,0
6.300,-6708.751953125,-1.819900990,0
6.302,-6705.823730469,0.862305999,0
6.304,-6709.647949219,-2.304007053,0
6.306,-6710.732421875,-2.635327816,0
6.308,-6708.502441406,-0.315337896,0
6.310,-6709.944824219,-1.367103577,0
6.312,-6710.766601563,-1.702196956,0
6.314,-6711.792480469,-2.121838570,0
6.316,-6710.361816406,-0.537646890,0
6.318,-6707.220703125,2.024978638,0
6.320,-6705.213378906,3.135932684,0
6.322,-6708.756347656,-0.316462249,0
6.324,-6711.540527344,-2.411653757,0
6.326,-6713.376464844,-3.303481579,0
6.328,-6713.148437500,-2.391976833,0
6.330,-6704.810058594,4.624858856,0
6.332,-6697.952636719,8.930459976,0
6.334,-6696.753417969,7.878709793,0
6.336,-6704.204101563,0.332797915,0
6.338,-6712.204101563,-5.963435650,0
6.340,-6714.576660156,-6.483520031,0
6.342,-6716.740722656,-6.725571156,0
6.344,-6722.132812500,-9.424927711,0
6.346,-6716.373535156,-2.851061583,0
6.348,-6709.000488281,3.517170191,0
6.350,-6707.210449219,4.127701759,0
6.352,-6709.135253906,1.713524461,0
6.354,-6711.470214844,-0.483473271,0
6.356,-6712.914550781,-1.499181032,0
6.358,-6709.577636719,1.429152608,0
6.360,-6712.822753906,-1.412295103,0
6.362,-6714.539550781,-2.433731556,0
6.364,-6713.975585938,-1.454278708,0
6.366,-6714.782226563,-1.758524299,0
6.368,-6714.605468750,-1.229984999,0
6.370,-6714.158691406,-0.609214485,0
6.372,-6712.730468750,0.636964142,0
6.374,-6712.221679688,0.891001880,0
6.376,-6714.088867188,-0.759321272,0
6.378,-6710.127441406,2.490648746,0
6.380,-6710.094238281,1.962948918,0
6.382,-6710.714843750,1.043846488,0
6.384,-6709.807128906,1.517932177,0
6.386,-6710.354492188,0.754939377,0
6.388,-6708.463378906,2.058061838,0
6.390,-6707.256835938,2.539205790,0
6.392,-6705.165039063,3.601909161,0
6.394,-6703.434570313,4.147248268,0
6.396,-6705.938964844,1.277518392,0
6.398,-6706.827148438,0.303075731,0
6.400,-6707.509277344,-0.294883758,0
6.402,-6708.114746094,-0.700433731,0
6.404,-6706.660644531,0.586488128,0
6.406,-6704.609863281,2.050997019,0
6.408,-6707.547851563,-0.690029263,0
6.410,-6708.038574219,-0.918057203,0
6.412,-6706.542480469,0.449413002,0
6.414,-6705.000976563,1.548526049,0
6.416,-6704.298828125,1.750583053,0
6.418,-6701.149902344,3.810717821,0
6.420,-6699.896484375,3.938606501,0
6.422,-6702.638671875,0.930430174,0
6.424,-6702.462890625,0.860491216,0
6.426,-6701.950683594,1.067554474,0
6.428,-6700.841796875,1.692690253,0
6.430,-6700.931152344,1.247142911,0
6.432,-6703.181152344,-0.779802203,0
6.434,-6702.234375000,0.129740939,0
6.436,-6703.197265625,-0.648199141,0
6.438,-6703.225097656,-0.525732338,0
6.440,-6699.721679688,2.315924644,0
6.442,-6703.102050781,-0.827823818,0
6.444,-6705.854980469,-2.784874439,0
6.446,-6705.167480469,-1.631440878,0
6.448,-6704.073730469,-0.418017417,0
6.450,-6702.025878906,1.267632961,0
6.452,-6701.325683594,1.530608296,0
6.454,-6700.454589844,1.867747307,0
6.456,-6701.881347656,0.342995703,0
6.458,-6705.968261719,-2.911843777,0
6.460,-6706.075683594,-2.348485470,0
6.462,-6703.464843750,0.204234794,0
6.464,-6702.614746094,0.819997191,0
6.466,-6701.609863281,1.419189692,0
6.468,-6697.557617188,4.255590916,0
6.470,-6695.630859375,4.808695316,0
6.472,-6695.729980469,3.662908792,0
6.474,-6699.938964844,-0.424735069,0
6.476,-6701.052734375,-1.196657896,0
6.478,-6697.625000000,1.735006094,0
6.480,-6699.464355469,-0.080932073,0
6.482,-6702.756347656,-2.623453856,0
6.484,-6701.105957031,-0.756902754,0
6.486,-6697.255371094,2.406213522,0
6.488,-6694.913085938,3.693510771,0
6.490,-6694.027832031,3.561007500,0
6.492,-6697.994140625,-0.315235078,0
6.494,-6700.468750000,-2.169670582,0
6.496,-6700.086914063,-1.390622497,0
6.498,-6700.457031250,-1.369545341,0
