Time,Vin,RawSignal,Event
Verified data,Verified data,For Reference Only,For Reference Only
0.002,137.779891968,107.160743713,27988543078924288
0.004,-788.891174316,-637.388671875,0
0.006,2748.606445313,2255.611083984,0
0.008,-6276.235351563,-5264.888671875,0
0.010,10676.391601563,9090.344726563,0
0.012,-12014.051757813,-10577.717773438,0
0.014,4943.214355469,4961.807128906,0
0.016,-4085.483398438,-3163.096191406,0
0.018,-545.828491211,292.875305176,0
0.020,-1473.034667969,-493.362030029,0
0.022,-1334.569091797,-276.027008057,0
0.024,-1331.376953125,-212.202194214,0
0.026,-1331.090820313,-164.821426392,0
0.028,-1337.893676758,-133.483825684,0
0.030,-1339.565429688,-105.119628906,0
0.032,-1335.983764648,-78.972976685,0
0.034,-1335.648071289,-61.161552429,0
0.036,-1332.908813477,-45.438972473,0
0.038,-1333.402832031,-35.725208282,0
0.040,-1333.785034180,-28.083089828,0
0.042,-1334.919189453,-22.724273682,0
0.044,-1337.937622070,-20.021844864,0
0.046,-1338.820434570,-16.258947372,0
0.048,-1333.477172852,-8.489842415,0
0.050,-1332.940063477,-6.185458183,0
0.052,-1335.256591797,-6.612541199,0
0.054,-1333.256591797,-3.587449312,0
0.056,-1332.503051758,-2.204105616,0
0.058,-1332.015625000,-1.335248590,0
0.060,-1330.978027344,-0.231461599,0
0.062,-1330.009155273,0.573509336,0
0.064,-1329.238281250,1.045671701,0
0.066,-1328.360473633,1.495975733,0
0.068,-1331.470214844,-1.255159616,0
0.070,-1331.233886719,-0.792356372,0
0.072,-1331.733276367,-1.004680872,0
0.074,-1334.736694336,-3.117373466,0
0.076,-1331.680664063,-0.047756009,0
0.078,-1328.325195313,2.572659731,0
0.080,-1332.381591797,-1.154034376,0
0.082,-1328.944702148,1.775514245,0
0.084,-1328.395996094,1.807765365,0
0.086,-1332.479492188,-1.770019650,0
0.088,-1329.548095703,0.903290272,0
0.090,-1329.740234375,0.553127289,0
0.092,-1335.929199219,-4.383419037,0
0.094,-1339.500488281,-6.186905384,0
0.096,-1341.889526367,-6.670118809,0
0.098,-1343.717529297,-6.609475136,0
0.100,-1345.954711914,-6.880686283,0
0.102,-1344.485351563,-4.208747864,0
0.104,-1344.534057617,-3.311347723,0
0.106,-1345.169067383,-3.069273949,0
0.108,-1345.189208984,-2.402920246,0
0.110,-1349.179321289,-4.972284794,0
0.112,-1354.340576172,-7.881477833,0
0.114,-1356.307983398,-7.660225868,0
0.116,-1360.884277344,-9.517174721,0
0.118,-1361.784179688,-8.102025032,0
0.120,-1356.746459961,-2.383328199,0
0.122,-1356.689086914,-1.809045076,0
0.124,-1363.764648438,-6.910125256,0
0.126,-1361.781616211,-3.832152843,0
0.128,-1358.524291992,-0.447077483,0
0.130,-1371.249267578,-10.244806290,0
0.132,-1377.393554688,-12.746868134,0
0.134,-1377.139160156,-9.716290474,0
0.136,-1378.706542969,-8.776039124,0
0.138,-1376.332641602,-4.979421139,0
0.140,-1357.687744141,10.628618240,0
0.142,-1335.401367188,25.600206375,0
0.144,-1321.244506836,30.921693802,0
0.146,-1308.721801758,33.789703369,0
0.148,-1301.985961914,31.519462585,0
0.150,-1304.605468750,22.477455139,0
0.152,-1311.503784180,12.116952896,0
0.154,-1315.746093750,6.124632835,0
0.156,-1319.140502930,2.123457909,0
0.158,-1321.997192383,-0.570260167,0
0.160,-1318.856323242,1.999349356,0
0.162,-1320.642456055,0.165769175,0
0.164,-1316.396972656,3.430920839,0
0.166,-1307.506225586,9.583412170,0
0.168,-1306.268310547,8.416511536,0
0.170,-1306.009033203,6.747725010,0
0.172,-1309.829711914,2.276559591,0
0.174,-1310.752319336,1.053056359,0
0.176,-1310.736694336,0.831214666,0
0.178,-1321.362915039,-7.618268013,0
0.180,-1335.311523438,-16.774015427,0
0.182,-1338.950927734,-15.876876831,0
0.184,-1339.581298828,-12.838852882,0
0.186,-1342.790893555,-12.481928825,0
0.188,-1341.615356445,-8.793714523,0
0.190,-1336.280151367,-2.689891577,0
0.192,-1336.786865234,-2.486232042,0
0.194,-1341.083618164,-5.275629044,0
0.196,-1344.149414063,-6.487654686,0
0.198,-1341.265258789,-2.802711248,0
0.200,-1339.081542969,-0.481461793,0
0.202,-1338.298706055,0.234443948,0
0.204,-1338.310058594,0.173497945,0
0.206,-1335.158325195,2.586299419,0
0.208,-1336.401000977,1.044973016,0
0.210,-1338.505004883,-0.823669434,0
0.212,-1335.955810547,1.342028737,0
0.214,-1337.221435547,0.059492353,0
0.216,-1339.444702148,-1.682957768,0
0.218,-1336.545410156,0.946008801,0
0.220,-1340.677612305,-2.478115797,0
0.222,-1341.295776367,-2.408151388,0
0.224,-1338.964599609,-0.059907701,0
0.226,-1339.655273438,-0.583711147,0
0.228,-1338.958496094,0.087898277,0
0.230,-1337.612670898,1.115084767,0
0.232,-1339.895019531,-0.907825470,0
0.234,-1343.343017578,-3.387803555,0
0.236,-1338.198974609,1.365923524,0
0.238,-1337.138427734,1.887194991,0
0.240,-1340.372436523,-1.047478914,0
0.242,-1337.009033203,1.801226258,0
0.244,-1336.252319336,1.989492655,0
0.246,-1341.407470703,-2.462109566,0
0.248,-1341.491699219,-1.980499864,0
0.250,-1351.366210938,-9.220382690,0
0.252,-1377.182250977,-27.250257492,0
0.254,-1410.089477539,-46.788486481,0
0.256,-1446.345825195,-64.589668274,0
0.258,-1468.702636719,-67.624099731,0
0.260,-1476.052612305,-58.312442780,0
0.262,-1482.980834961,-50.742095947,0
0.264,-1480.335815430,-37.408321381,0
0.266,-1492.087036133,-38.234703064,0
0.268,-1507.831298828,-41.983139038,0
0.270,-1519.318603516,-41.587505341,0
0.272,-1550.403076172,-56.521934509,0
0.274,-1548.694580078,-42.632183075,0
0.276,-1480.277343750,20.054836273,0
0.278,-1345.618286133,120.331443787,0
0.280,-1128.253662109,262.649108887,0
0.282,-895.033081055,385.671386719,0
0.284,-632.964660645,503.791076660,0
0.286,-258.114471436,683.378784180,0
0.288,127.695190430,831.580200195,0
0.290,359.500213623,827.066650391,0
0.292,450.370605469,713.941772461,0
0.294,516.269104004,606.534545898,0
0.296,458.148681641,426.538818359,0
0.298,293.392761230,203.606262207,0
0.300,211.900863647,94.976600647,0
0.302,127.344879150,8.104820251,0
0.304,-26.205251694,-113.122657776,0
0.306,-184.461791992,-211.069976807,0
0.308,-345.314544678,-289.269470215,0
0.310,-513.934753418,-356.131805420,0
0.312,-683.521911621,-408.887207031,0
0.314,-834.776489258,-435.660156250,0
0.316,-959.698486328,-436.002685547,0
0.318,-1056.873168945,-414.688140869,0
0.320,-1120.925048828,-372.348541260,0
0.322,-1172.077270508,-329.385192871,0
0.324,-1217.620361328,-291.607055664,0
0.326,-1248.660034180,-250.944244385,0
0.328,-1268.247924805,-210.411087036,0
0.330,-1284.981445313,-176.665771484,0
0.332,-1294.454345703,-144.772613525,0
0.334,-1307.927490234,-123.078491211,0
0.336,-1323.018676758,-107.463935852,0
0.338,-1328.111450195,-87.542907715,0
0.340,-1334.906494141,-73.373001099,0
0.342,-1343.105834961,-63.444355011,0
0.344,-1349.042480469,-53.962337494,0
0.346,-1358.490234375,-49.318328857,0
0.348,-1361.557373047,-40.743724823,0
0.350,-1368.229370117,-36.878364563,0
0.352,-1371.672241211,-31.360563278,0
0.354,-1370.053222656,-23.131961823,0
0.356,-1371.861450195,-19.397687912,0
0.358,-1373.761718750,-16.564846039,0
0.360,-1377.036865234,-15.430962563,0
0.362,-1377.439086914,-12.314549446,0
0.364,-1377.036010742,-9.264367104,0
0.366,-1379.031005859,-8.757128716,0
0.368,-1380.088500977,-7.633532047,0
0.370,-1385.005981445,-9.761701584,0
0.372,-1386.318115234,-8.612914085,0
0.374,-1381.227416992,-2.739490032,0
0.376,-1381.886596680,-2.643344164,0
0.378,-1384.497192383,-4.086368084,0
0.380,-1381.642089844,-0.957582653,0
0.382,-1379.445434570,0.963712275,0
0.384,-1382.503173828,-1.628722310,0
0.386,-1383.973022461,-2.409965277,0
0.388,-1383.383544922,-1.415938735,0
0.390,-1381.218994141,0.582247496,0
0.392,-1379.805541992,1.552220464,0
0.394,-1382.534545898,-0.915287733,0
0.396,-1383.109375000,-1.158961177,0
0.398,-1379.980346680,1.532262206,0
0.400,-1381.786499023,-0.213017315,0
0.402,-1384.309082031,-2.127667665,0
0.404,-1382.290771484,-0.085023686,0
0.406,-1383.870849609,-1.295047998,0
0.408,-1387.482177734,-3.816069365,0
0.410,-1382.348022461,1.025185108,0
0.412,-1380.114746094,2.534295082,0
0.414,-1383.990600586,-1.043367028,0
0.416,-1385.277709961,-1.812564492,0
0.418,-1385.142089844,-1.304336071,0
0.420,-1384.764526367,-0.720788121,0
0.422,-1381.790649414,1.752391577,0
0.424,-1379.650146484,3.027777433,0
0.426,-1382.560546875,0.091265596,0
0.428,-1386.711059570,-3.157129765,0
0.430,-1386.936035156,-2.630504370,0
0.432,-1385.295043945,-0.769573808,0
0.434,-1381.255249023,2.543437481,0
0.436,-1380.324829102,2.701841593,0
0.438,-1383.028198242,-0.001158544,0
0.440,-1383.155273438,-0.099798054,0
0.442,-1384.261352539,-0.937841654,0
0.444,-1388.777832031,-4.242242336,0
0.446,-1391.206665039,-5.188528061,0
0.448,-1392.303100586,-4.888258457,0
0.450,-1394.064941406,-5.172219276,0
0.452,-1397.338012695,-6.568439960,0
0.454,-1397.458862305,-5.202695370,0
0.456,-1396.655273438,-3.421492815,0
0.458,-1402.152099609,-6.936374664,0
0.460,-1402.631347656,-5.767640591,0
0.462,-1398.250976563,-1.078952551,0
0.464,-1401.052001953,-3.017723083,0
0.466,-1403.315917969,-4.107899189,0
0.468,-1402.983520508,-2.936460018,0
0.470,-1405.689331055,-4.388407230,0
0.472,-1409.240478516,-6.175081730,0
0.474,-1410.995361328,-6.167687893,0
0.476,-1411.551269531,-5.229427338,0
0.478,-1415.471923828,-7.116661072,0
0.480,-1421.861328125,-10.504540443,0
0.482,-1421.004760742,-7.503932476,0
0.484,-1420.495727539,-5.440322876,0
0.486,-1420.555664063,-4.277949810,0
0.488,-1422.401489258,-4.762909889,0
0.490,-1427.033203125,-7.306781292,0
0.492,-1424.311157227,-3.565914869,0
0.494,-1423.973632813,-2.510953903,0
0.496,-1426.115234375,-3.618534565,0
0.498,-1426.050781250,-2.764282465,0
0.500,-1426.703247070,-2.657441854,0
0.502,-1425.417236328,-1.066688538,0
0.504,-1424.881103516,-0.412564874,0
0.506,-1423.876220703,0.460591525,0
0.508,-1421.527954102,2.184687614,0
0.510,-1413.847045898,7.673175335,0
0.512,-1408.346069336,10.246354103,0
0.514,-1401.518920898,13.279232979,0
0.516,-1397.366333008,13.557889938,0
0.518,-1391.394775391,15.189386368,0
0.520,-1385.406127930,16.471578598,0
0.522,-1379.155883789,17.672319412,0
0.524,-1373.791870117,17.916934967,0
0.526,-1366.735961914,19.423116684,0
0.528,-1361.553222656,19.137641907,0
0.530,-1360.916992188,15.379402161,0
0.532,-1360.364501953,12.391345978,0
0.534,-1360.821044922,9.282510757,0
0.536,-1362.444580078,5.956933022,0
0.538,-1361.769287109,5.158319473,0
0.540,-1361.074096680,4.552604675,0
0.542,-1360.369750977,4.088748455,0
0.544,-1362.803222656,1.287397504,0
0.546,-1362.588989258,1.167875409,0
0.548,-1358.961791992,3.729507446,0
0.550,-1357.092285156,4.354694366,0
0.552,-1358.973388672,1.923873544,0
0.554,-1359.518676758,1.072269678,0
0.556,-1361.145141602,-0.431056052,0
0.558,-1358.530395508,1.698361754,0
0.560,-1356.859619141,2.620469809,0
0.562,-1357.824951172,1.287263989,0
0.564,-1360.821899414,-1.329723120,0
0.566,-1361.268066406,-1.381215572,0
0.568,-1360.046875000,-0.124428771,0
0.570,-1359.659301758,0.204601496,0
0.572,-1354.543334961,4.138217449,0
0.574,-1351.305175781,5.737078190,0
0.576,-1350.949462891,4.738766193,0
0.578,-1347.569702148,6.314377785,0
0.580,-1349.934936523,3.071493387,0
0.582,-1354.078247070,-0.833608091,0
0.584,-1349.787719727,2.688656330,0
0.586,-1351.369873047,0.860627949,0
0.588,-1358.541870117,-4.908841133,0
0.590,-1358.232543945,-3.577346087,0
0.592,-1356.045654297,-1.081457376,0
0.594,-1358.476684570,-2.731853008,0
0.596,-1356.168334961,-0.329408437,0
0.598,-1356.034790039,-0.152357101,0
0.600,-1357.485229492,-1.246622205,0
0.602,-1353.529052734,2.107442141,0
0.604,-1355.101318359,0.416266322,0
0.606,-1356.008056641,-0.381497502,0
0.608,-1352.314941406,2.575717688,0
0.610,-1355.023803711,-0.103605531,0
0.612,-1354.732299805,0.146187738,0
0.614,-1353.303100586,1.225232244,0
0.616,-1351.976440430,1.984822035,0
0.618,-1348.541381836,4.215400219,0
0.620,-1346.433837891,4.917716980,0
0.622,-1352.703735352,-1.051636338,0
0.624,-1354.804687500,-2.451990366,0
0.626,-1351.506591797,0.658101857,0
0.628,-1354.391967773,-1.732285380,0
0.630,-1354.045776367,-1.078127384,0
0.632,-1352.105346680,0.670749247,0
0.634,-1349.975097656,2.178434610,0
0.636,-1350.964599609,0.924714506,0
0.638,-1349.835693359,1.597263575,0
0.640,-1347.951416016,2.707808495,0
0.642,-1347.530151367,2.433689833,0
0.644,-1348.863769531,0.855605960,0
0.646,-1351.141845703,-1.106279612,0
0.648,-1351.655029297,-1.259551406,0
0.650,-1355.608154297,-4.054335594,0
0.652,-1354.789306641,-2.516446114,0
0.654,-1352.734130859,-0.358712614,0
0.656,-1352.219970703,0.120879307,0
0.658,-1354.647705078,-1.794188023,0
0.660,-1353.777465820,-0.718630016,0
0.662,-1351.120483398,1.507558823,0
0.664,-1352.198364258,0.334235758,0
0.666,-1352.040405273,0.382823616,0
0.668,-1353.416381836,-0.772511840,0
0.670,-1355.723022461,-2.394802332,0
0.672,-1354.280639648,-0.740805686,0
0.674,-1352.999267578,0.420492411,0
0.676,-1351.380004883,1.586421132,0
0.678,-1353.314941406,-0.271055013,0
0.680,-1353.383422852,-0.264114469,0
0.682,-1352.683105469,0.339330047,0
0.684,-1353.913452148,-0.693063080,0
0.686,-1352.938842773,0.219040126,0
0.688,-1353.263671875,-0.082327098,0
0.690,-1353.698486328,-0.402223885,0
0.692,-1356.202880859,-2.260642767,0
0.694,-1355.731445313,-1.391587973,0
0.696,-1356.245849609,-1.482391596,0
0.698,-1358.960205078,-3.264132738,0
0.700,-1361.613403320,-4.602317810,0
0.702,-1359.213134766,-1.712678790,0
0.704,-1361.385742188,-3.021826982,0
0.706,-1361.758300781,-2.640107155,0
0.708,-1364.427490234,-4.129347801,0
0.710,-1367.312500000,-5.455543518,0
0.712,-1366.557128906,-3.655626059,0
0.714,-1365.979370117,-2.393843174,0
0.716,-1367.997558594,-3.431623936,0
0.718,-1365.947753906,-1.074676514,0
0.720,-1363.330566406,1.199665666,0
0.722,-1367.045288086,-1.956116915,0
0.724,-1368.615112305,-2.742310047,0
0.726,-1368.202880859,-1.812286377,0
0.728,-1369.104736328,-2.110981703,0
0.730,-1369.437011719,-1.900285840,0
0.732,-1371.519165039,-3.097383022,0
0.734,-1374.236206055,-4.522250175,0
0.736,-1374.926269531,-4.054055691,0
0.738,-1377.082885742,-4.830382347,0
0.740,-1371.994384766,0.200720966,0
0.742,-1372.521972656,-0.254232764,0
0.744,-1373.117553711,-0.660909772,0
0.746,-1374.831665039,-1.847282529,0
0.748,-1372.439086914,0.424170941,0
0.750,-1370.459594727,1.869494677,0
0.752,-1374.856079102,-1.965446234,0
0.754,-1374.044799805,-0.897644222,0
0.756,-1373.551635742,-0.314620465,0
0.758,-1376.531250000,-2.562165022,0
0.760,-1377.133178711,-2.460891485,0
0.762,-1378.911254883,-3.297001362,0
0.764,-1381.886962891,-4.878623486,0
0.766,-1381.934204102,-3.831201792,0
0.768,-1381.359252930,-2.532577276,0
0.770,-1384.616821289,-4.503392696,0
0.772,-1384.893188477,-3.717602015,0
0.774,-1384.336425781,-2.458374023,0
0.776,-1388.299804688,-4.994597912,0
0.778,-1390.412475586,-5.527835846,0
0.780,-1390.448242188,-4.327190399,0
0.782,-1395.627929688,-7.394165039,0
0.784,-1397.742797852,-7.395769596,0
0.786,-1398.027343750,-5.973549366,0
0.788,-1401.021240234,-6.974571705,0
0.790,-1401.274414063,-5.621505260,0
0.792,-1402.466552734,-5.299449921,0
0.794,-1408.947509766,-9.162403107,0
0.796,-1408.781250000,-6.996938229,0
0.798,-1407.754394531,-4.643332481,0
0.800,-1418.967163086,-12.332389832,0
0.802,-1425.777221680,-14.888374329,0
0.804,-1423.711669922,-9.973128319,0
0.806,-1426.149658203,-9.653016090,0
0.808,-1424.800415039,-6.458327770,0
0.810,-1409.626342773,6.778774738,0
0.812,-1395.659057617,16.135665894,0
0.814,-1380.750732422,24.144987106,0
0.816,-1369.224121094,27.744184494,0
0.818,-1368.720581055,21.970230103,0
0.820,-1368.623046875,17.163520813,0
0.822,-1369.726806641,12.490835190,0
0.824,-1377.534667969,3.642209053,0
0.826,-1380.591796875,0.455088764,0
0.828,-1385.700195313,-3.619239807,0
0.830,-1384.650878906,-1.998798251,0
0.832,-1380.495483398,1.677377462,0
0.834,-1381.448974609,0.562947810,0
0.836,-1375.827880859,4.809753895,0
0.838,-1374.016845703,5.149497032,0
0.840,-1383.547851563,-3.407851458,0
0.842,-1390.805786133,-8.295480728,0
0.844,-1395.095092773,-9.788028717,0
0.846,-1404.107910156,-14.622679710,0
0.848,-1415.454589844,-20.198141098,0
0.850,-1422.575561523,-21.247953415,0
0.852,-1426.962524414,-19.937936783,0
0.854,-1430.404663086,-18.184331894,0
0.856,-1427.434814453,-11.833309174,0
0.858,-1428.897949219,-10.341568947,0
0.860,-1430.529907227,-9.312552452,0
0.862,-1428.543945313,-5.698391438,0
0.864,-1431.050537109,-6.381594181,0
0.866,-1431.601806641,-5.392171860,0
0.868,-1431.624755859,-4.211697102,0
0.870,-1434.266479492,-5.330342770,0
0.872,-1434.331176758,-4.196133614,0
0.874,-1434.955688477,-3.749306917,0
0.876,-1433.962524414,-2.143646479,0
0.878,-1436.441406250,-3.595280409,0
0.880,-1438.272094727,-4.220093250,0
0.882,-1440.861816406,-5.296452999,0
0.884,-1442.870849609,-5.682018280,0
0.886,-1441.940063477,-3.695366621,0
0.888,-1444.967285156,-5.228553772,0
0.890,-1449.144287109,-7.315374374,0
0.892,-1449.863647461,-6.249140263,0
0.894,-1452.264282227,-6.727489948,0
0.896,-1457.194335938,-9.066936493,0
0.898,-1462.352905273,-11.064076424,0
0.900,-1463.771606445,-9.708775520,0
0.902,-1462.857666016,-6.840303421,0
0.904,-1462.469116211,-5.017988682,0
0.906,-1463.281738281,-4.534809113,0
0.908,-1466.679443359,-6.169670105,0
0.910,-1469.181396484,-6.744504929,0
0.912,-1470.063232422,-5.931486130,0
0.914,-1470.389038086,-4.866748333,0
0.916,-1469.770874023,-3.304417372,0
0.918,-1476.862670898,-8.085840225,0
0.920,-1495.399047852,-20.705949783,0
0.922,-1523.225952148,-37.747226715,0
0.924,-1561.495849609,-59.123695374,0
0.926,-1596.346313477,-73.090003967,0
0.928,-1613.579467773,-70.250473022,0
0.930,-1624.042358398,-62.776268005,0
0.932,-1633.458129883,-56.148651123,0
0.934,-1631.168579102,-41.889869690,0
0.936,-1639.663574219,-39.187717438,0
0.938,-1653.854125977,-41.515838623,0
0.940,-1671.776000977,-46.228771210,0
0.942,-1695.961669922,-54.766040802,0
0.944,-1676.594360352,-27.532043457,0
0.946,-1583.899169922,50.681816101,0
0.948,-1431.282470703,158.119064331,0
0.950,-1226.233520508,282.460327148,0
0.952,-996.495239258,398.371490479,0
0.954,-716.998168945,527.224304199,0
0.956,-346.691894531,698.070251465,0
0.958,-17.460027695,799.002380371,0
0.960,139.445724487,743.474426270,0
0.962,228.123031616,647.220764160,0
0.964,275.811920166,540.478210449,0
0.966,168.379272461,336.808868408,0
0.968,-8.971079826,124.021682739,0
0.970,-120.043159485,10.071784019,0
0.972,-218.439071655,-68.695648193,0
0.974,-330.133117676,-140.301269531,0
0.976,-477.748260498,-223.932083130,0
0.978,-641.273986816,-301.352172852,0
0.980,-789.567871094,-349.720184326,0
0.982,-939.744812012,-388.803833008,0
0.984,-1077.999511719,-409.929077148,0
0.986,-1187.605346680,-404.077453613,0
0.988,-1272.707031250,-380.467712402,0
0.990,-1339.661376953,-347.990447998,0
0.992,-1388.709716797,-308.803894043,0
0.994,-1429.164428711,-271.642028809,0
0.996,-1461.691528320,-236.572998047,0
0.998,-1480.486206055,-198.616729736,0
1.000,-1491.190551758,-162.803115845,0
1.002,-1499.568237305,-133.138900757,0
1.004,-1511.500366211,-112.831596375,0
1.006,-1529.535034180,-101.783477783,0
1.008,-1541.045288086,-88.116218567,0
1.010,-1549.929077148,-75.443466187,0
1.012,-1556.751464844,-63.983711243,0
1.014,-1567.519409180,-58.139423370,0
1.016,-1573.265258789,-49.687927246,0
1.018,-1577.567016602,-41.991481781,0
1.020,-1585.848022461,-39.100238800,0
1.022,-1588.877807617,-32.767406464,0
1.024,-1592.220336914,-28.085144043,0
1.026,-1597.135498047,-25.666536331,0
1.028,-1600.472045898,-22.557683945,0
1.030,-1602.770507813,-19.332357407,0
1.032,-1605.491821289,-17.152637482,0
1.034,-1612.358520508,-18.681400299,0
1.036,-1616.560424805,-17.797914505,0
1.038,-1620.962280273,-17.266269684,0
1.040,-1623.626098633,-15.500927925,0
1.042,-1627.694091797,-15.220129013,0
1.044,-1631.102905273,-14.488940239,0
1.046,-1631.980468750,-11.951576233,0
1.048,-1633.660034180,-10.601934433,0
1.050,-1639.156738281,-12.521008492,0
1.052,-1639.604614258,-10.086694717,0
1.054,-1639.819702148,-8.012395859,0
1.056,-1646.097900391,-11.114811897,0
1.058,-1645.210571289,-7.954609871,0
1.060,-1643.973144531,-5.224355221,0
1.062,-1652.169067383,-10.437871933,0
1.064,-1656.019165039,-11.112746239,0
1.066,-1654.429321289,-7.406643391,0
1.068,-1656.694458008,-7.522328854,0
1.070,-1660.749633789,-9.004611969,0
1.072,-1663.978637695,-9.514933586,0
1.074,-1659.713012695,-4.082758904,0
1.076,-1660.316772461,-3.645020247,0
1.078,-1667.339965820,-8.297377586,0
1.080,-1667.968750000,-6.942496777,0
1.082,-1667.662597656,-5.161556244,0
1.084,-1673.876098633,-8.847127914,0
1.086,-1676.764648438,-9.127587318,0
1.088,-1677.687988281,-7.817305088,0
1.090,-1681.370483398,-8.944140434,0
1.092,-1686.857910156,-11.224497795,0
1.094,-1687.642211914,-9.339973450,0
1.096,-1689.408691406,-8.638317108,0
1.098,-1690.155517578,-7.299409866,0
1.100,-1692.784790039,-7.722238541,0
1.102,-1698.626586914,-10.549674034,0
1.104,-1701.152465820,-10.169702530,0
1.106,-1702.308105469,-8.808464050,0
1.108,-1706.707275391,-10.272458076,0
1.110,-1708.599487305,-9.461304665,0
1.112,-1711.398193359,-9.535431862,0
1.114,-1714.718261719,-9.998599052,0
1.116,-1716.447143555,-9.121284485,0
1.118,-1717.259033203,-7.725724220,0
1.120,-1720.513549805,-8.540071487,0
1.122,-1722.893310547,-8.493033409,0
1.124,-1726.834716797,-9.671106339,0
1.126,-1728.979003906,-9.189656258,0
1.128,-1732.792724609,-10.113607407,0
1.130,-1736.391845703,-10.665342331,0
1.132,-1742.111694336,-12.743839264,0
1.134,-1747.013427734,-13.724169731,0
1.136,-1749.373657227,-12.509961128,0
1.138,-1751.517578125,-11.397284508,0
1.140,-1756.661865234,-12.865469933,0
1.142,-1759.595825195,-12.288300514,0
1.144,-1765.307739258,-14.000018120,0
1.146,-1770.785034180,-15.148823738,0
1.148,-1773.806884766,-14.132571220,0
1.150,-1775.810424805,-12.550112724,0
1.152,-1778.812622070,-12.096105576,0
1.154,-1781.669067383,-11.629628181,0
1.156,-1786.475585938,-12.783491135,0
1.158,-1788.448608398,-11.477159500,0
1.160,-1790.947753906,-10.870273590,0
1.162,-1795.891967773,-12.299987793,0
1.164,-1801.916259766,-14.252074242,0
1.166,-1799.929199219,-9.539271355,0
1.168,-1804.314819336,-10.830362320,0
1.170,-1808.469360352,-11.654811859,0
1.172,-1806.993164063,-7.916524410,0
1.174,-1810.235717773,-8.679253578,0
1.176,-1813.157226563,-9.022630692,0
1.178,-1813.353637695,-7.170339108,0
1.180,-1813.790039063,-5.916217804,0
1.182,-1810.097290039,-1.729335785,0
1.184,-1808.995971680,-0.488510728,0
1.186,-1808.503051758,0.003439773,0
1.188,-1802.718139648,4.501966953,0
1.190,-1802.778320313,3.454706669,0
1.192,-1802.970703125,2.537304878,0
1.194,-1799.945800781,4.326173782,0
1.196,-1801.581665039,2.092420101,0
1.198,-1804.055297852,-0.296480685,0
1.200,-1805.572875977,-1.410969138,0
1.202,-1807.868286133,-2.882692337,0
1.204,-1810.869140625,-4.576055527,0
1.206,-1816.025390625,-7.569388866,0
1.208,-1821.288696289,-9.980943680,0
1.210,-1825.750244141,-11.232855797,0
1.212,-1826.869995117,-9.607420921,0
1.214,-1828.732910156,-8.921303749,0
1.216,-1831.127441406,-8.801079750,0
1.218,-1833.483276367,-8.677497864,0
1.220,-1836.507202148,-9.100951195,0
1.222,-1838.808471680,-8.868335724,0
1.224,-1842.154418945,-9.499801636,0
1.226,-1844.743774414,-9.402627945,0
1.228,-1849.237548828,-10.808172226,0
1.230,-1850.044067383,-9.033515930,0
1.232,-1852.533569336,-8.962189674,0
1.234,-1856.129638672,-9.767477989,0
1.236,-1859.294067383,-10.058020592,0
1.238,-1864.514404297,-11.882963181,0
1.240,-1868.956909180,-12.697400093,0
1.242,-1869.694458008,-10.449297905,0
1.244,-1869.286743164,-7.809989452,0
1.246,-1871.560058594,-7.842509747,0
1.248,-1870.078491211,-4.947334766,0
1.250,-1871.284912109,-4.786215782,0
1.252,-1874.489990234,-6.215379238,0
1.254,-1873.003173828,-3.677671671,0
1.256,-1876.528076172,-5.601922989,0
1.258,-1881.963745117,-8.584703445,0
1.260,-1883.466918945,-7.845993996,0
1.262,-1885.635375977,-7.788941383,0
1.264,-1888.817993164,-8.533332825,0
1.266,-1887.810058594,-5.852958202,0
1.268,-1891.097778320,-7.109354973,0
1.270,-1891.557373047,-5.886882782,0
1.272,-1894.401611328,-6.790834904,0
1.274,-1900.425048828,-9.966502190,0
1.276,-1899.600219727,-7.110123158,0
1.278,-1901.683593750,-7.150319576,0
1.280,-1905.540649414,-8.561216354,0
1.282,-1905.444335938,-6.583753586,0
1.284,-1906.412475586,-5.873588085,0
1.286,-1908.233764648,-5.984800339,0
1.288,-1908.478515625,-4.845230579,0
1.290,-1909.446533203,-4.521346569,0
1.292,-1915.556518555,-8.268715858,0
1.294,-1918.628295898,-8.820218086,0
1.296,-1915.371582031,-4.327085972,0
1.298,-1918.093872070,-5.482800484,0
1.300,-1921.719604492,-7.084312439,0
1.302,-1926.941528320,-9.571416855,0
1.304,-1927.944213867,-8.224150658,0
1.306,-1929.592529297,-7.678543568,0
1.308,-1932.770507813,-8.443869591,0
1.310,-1933.162597656,-6.872257710,0
1.312,-1937.378173828,-8.623744011,0
1.314,-1940.464355469,-9.107655525,0
1.316,-1940.600097656,-7.189229965,0
1.318,-1943.201416016,-7.614740372,0
1.320,-1945.679199219,-7.849672318,0
1.322,-1944.703125000,-5.346003056,0
1.324,-1946.279174805,-5.383780956,0
1.326,-1948.593505859,-5.987340450,0
1.328,-1952.303955078,-7.542635918,0
1.330,-1954.879638672,-7.869679928,0
1.332,-1952.541503906,-4.302312374,0
1.334,-1957.222534180,-6.986943722,0
1.336,-1961.095336914,-8.446312904,0
1.338,-1962.064941406,-7.323428631,0
1.340,-1963.559814453,-6.858541489,0
1.342,-1963.468627930,-5.263488293,0
1.344,-1966.029785156,-6.085713863,0
1.346,-1967.946655273,-6.224196911,0
1.348,-1967.307617188,-4.343978405,0
1.350,-1968.640502930,-4.415231228,0
1.352,-1971.981567383,-6.032593727,0
1.354,-1974.852783203,-6.925104141,0
1.356,-1978.245605469,-8.024946213,0
1.358,-1981.484375000,-8.760548592,0
1.360,-1982.442016602,-7.558516026,0
1.362,-1983.386352539,-6.613205433,0
1.364,-1986.826904297,-7.819541454,0
1.366,-1988.792846680,-7.610788822,0
1.368,-1990.021240234,-6.874885082,0
1.370,-1993.968261719,-8.416912079,0
1.372,-1995.802978516,-7.973370552,0
1.374,-1999.412841797,-9.009057999,0
1.376,-2005.754150391,-11.938984871,0
1.378,-2008.151977539,-11.150726318,0
1.380,-2011.533569336,-11.302788734,0
1.382,-2013.152832031,-10.050348282,0
1.384,-2016.557373047,-10.464818001,0
1.386,-2017.155395508,-8.604244232,0
1.388,-2017.737060547,-7.144540310,0
1.390,-2019.125122070,-6.636345387,0
1.392,-2022.008666992,-7.404274464,0
1.394,-2025.999267578,-8.862558365,0
1.396,-2029.376220703,-9.519568443,0
1.398,-2033.323852539,-10.474344254,0
1.400,-2034.854736328,-9.337259293,0
1.402,-2034.638427734,-7.093985558,0
1.404,-2040.785034180,-10.298065186,0
1.406,-2043.017700195,-9.746035576,0
1.408,-2043.974487305,-8.324303627,0
1.410,-2047.507934570,-9.222525597,0
1.412,-2051.065917969,-9.940382957,0
1.414,-2055.354492188,-11.066823006,0
1.416,-2057.093017578,-9.959549904,0
1.418,-2060.389892578,-10.310376167,0
1.420,-2061.365966797,-8.778176308,0
1.422,-2065.098144531,-9.730185509,0
1.424,-2072.944335938,-13.670365334,0
1.426,-2077.117187500,-13.877785683,0
1.428,-2080.638427734,-13.532568932,0
1.430,-2083.328613281,-12.617487907,0
1.432,-2085.831542969,-11.760161400,0
1.434,-2090.644531250,-12.890012741,0
1.436,-2094.339111328,-12.899077415,0
1.438,-2095.064697266,-10.596769333,0
1.440,-2097.032958984,-9.772700310,0
1.442,-2101.771972656,-11.286625862,0
1.444,-2106.024902344,-12.086258888,0
1.446,-2108.415771484,-11.259713173,0
1.448,-2114.064941406,-13.151279449,0
1.450,-2120.443603516,-15.189830780,0
1.452,-2123.173095703,-13.937062263,0
1.454,-2124.807861328,-12.111107826,0
1.456,-2127.951416016,-11.864706039,0
1.458,-2130.357666016,-11.099422455,0
1.460,-2133.457763672,-11.043888092,0
1.462,-2136.340332031,-10.831566811,0
1.464,-2142.256103516,-13.025594711,0
1.466,-2150.799804688,-16.775871277,0
1.468,-2157.155761719,-17.991296768,0
1.470,-2162.701904297,-18.306543350,0
1.472,-2166.089599609,-16.873142242,0
1.474,-2158.187500000,-6.977386951,0
1.476,-2142.384521484,6.864382744,0
1.478,-2127.389892578,17.001234055,0
1.480,-2117.255615234,21.105045319,0
1.482,-2107.570800781,23.947362900,0
1.484,-2103.788574219,21.567125320,0
1.486,-2105.726074219,15.267241478,0
1.488,-2115.397216797,4.352599144,0
1.490,-2122.641845703,-2.249351263,0
1.492,-2124.960693359,-3.553048134,0
1.494,-2130.322021484,-6.933310032,0
1.496,-2135.982177734,-9.794762611,0
1.498,-2135.427734375,-7.186845303,0
1.500,-2131.370361328,-2.433964968,0
1.502,-2131.785644531,-2.216149807,0
1.504,-2133.134765625,-2.772927046,0
1.506,-2137.106933594,-5.246110916,0
1.508,-2142.480957031,-8.259881973,0
1.510,-2147.186279297,-10.083939552,0
1.512,-2157.110107422,-15.561525345,0
1.514,-2170.604980469,-22.599100113,0
1.516,-2181.214599609,-25.828670502,0
1.518,-2185.212158203,-23.197786331,0
1.520,-2185.854492188,-18.542097092,0
1.522,-2191.609375000,-18.897495270,0
1.524,-2196.786621094,-18.724563599,0
1.526,-2196.807373047,-14.579385757,0
1.528,-2197.015380859,-11.501248360,0
1.530,-2201.058593750,-12.089828491,0
1.532,-2202.996093750,-10.910157204,0
1.534,-2206.346435547,-11.091201782,0
1.536,-2206.808349609,-8.985768318,0
1.538,-2206.651855469,-6.867073536,0
1.540,-2207.294677734,-5.840950489,0
1.542,-2210.117919922,-6.738662720,0
1.544,-2211.761230469,-6.519371510,0
1.546,-2213.561279297,-6.470541954,0
1.548,-2214.882324219,-6.060054779,0
1.550,-2217.776611328,-6.964295864,0
1.552,-2220.659667969,-7.659073353,0
1.554,-2223.879150391,-8.460907936,0
1.556,-2227.074462891,-9.065893173,0
1.558,-2228.170654297,-7.903691292,0
1.560,-2227.159179688,-5.360536575,0
1.562,-2230.204345703,-6.537638664,0
1.564,-2234.395751953,-8.344832420,0
1.566,-2236.365722656,-8.022502899,0
1.568,-2240.559814453,-9.501623154,0
1.570,-2242.771484375,-9.110163689,0
1.572,-2243.385742188,-7.563390732,0
1.574,-2245.898193359,-7.836613178,0
1.576,-2247.751708984,-7.536635876,0
1.578,-2249.710205078,-7.385068893,0
1.580,-2250.094970703,-6.043076038,0
1.582,-2251.533203125,-5.818754196,0
1.584,-2263.697021484,-13.986292839,0
1.586,-2284.784667969,-27.279415131,0
1.588,-2313.550537109,-43.590110779,0
1.590,-2355.691406250,-66.678863525,0
1.592,-2392.927978516,-80.822021484,0
1.594,-2411.026611328,-76.937393188,0
1.596,-2424.196289063,-70.082221985,0
1.598,-2431.124267578,-59.896209717,0
1.600,-2439.913818359,-53.421531677,0
1.602,-2455.178466797,-53.421772003,0
1.604,-2467.074951172,-50.802551270,0
1.606,-2503.428710938,-67.787300110,0
1.608,-2535.173828125,-77.413055420,0
1.610,-2498.497802734,-31.683969498,0
1.612,-2404.693115234,48.315410614,0
1.614,-2219.483154297,181.628509521,0
1.616,-1979.915527344,327.592742920,0
1.618,-1745.059204102,437.454742432,0
1.620,-1413.665771484,597.985290527,0
1.622,-996.328063965,789.685363770,0
1.624,-674.670898438,864.366333008,0
1.626,-534.162658691,781.558898926,0
1.628,-462.358703613,663.718078613,0
1.630,-446.951568604,528.201660156,0
1.632,-589.748657227,299.755187988,0
1.634,-724.626708984,128.236114502,0
1.636,-790.995056152,48.118740082,0
1.638,-941.054443359,-79.286109924,0
1.640,-1112.154541016,-194.742294312,0
1.642,-1259.675292969,-266.201141357,0
1.644,-1429.513916016,-339.137603760,0
1.646,-1610.642822266,-404.646545410,0
1.648,-1773.498168945,-441.384582520,0
1.650,-1907.403442383,-447.441925049,0
1.652,-2011.445922852,-428.926696777,0
1.654,-2086.350585938,-391.863708496,0
1.656,-2142.242675781,-348.250030518,0
1.658,-2197.650390625,-313.951965332,0
1.660,-2230.029052734,-269.364807129,0
1.662,-2249.596191406,-224.721847534,0
1.664,-2271.535400391,-191.845001221,0
1.666,-2287.044433594,-161.273300171,0
1.668,-2300.037841797,-135.538925171,0
1.670,-2313.997314453,-116.275032043,0
1.672,-2325.696777344,-99.534538269,0
1.674,-2336.027832031,-85.449783325,0
1.676,-2345.071289063,-73.493927002,0
1.678,-2355.086914063,-64.950904846,0
1.680,-2362.526367188,-56.302936554,0
1.682,-2370.992187500,-50.375068665,0
1.684,-2375.482421875,-42.672420502,0
1.686,-2379.919921875,-36.640609741,0
1.688,-2384.080078125,-31.733497620,0
1.690,-2389.470214844,-28.873569489,0
1.692,-2391.269531250,-23.856298447,0
1.694,-2392.399658203,-19.433660507,0
1.696,-2395.813964844,-17.770368576,0
1.698,-2403.607421875,-19.882879257,0
1.700,-2407.542968750,-18.525106430,0
1.702,-2406.580078125,-13.659268379,0
1.704,-2408.825927734,-12.370519638,0
1.706,-2413.191162109,-13.016511917,0
1.708,-2412.099365234,-9.274627686,0
1.710,-2410.603027344,-6.049726963,0
1.712,-2413.073974609,-6.627132893,0
1.714,-2417.481689453,-8.582533836,0
1.716,-2418.312255859,-7.321237564,0
1.718,-2418.411865234,-5.771666527,0
1.720,-2421.830810547,-7.148172379,0
1.722,-2420.105957031,-4.218114376,0
1.724,-2424.819335938,-6.946604252,0
1.726,-2426.173339844,-6.455935001,0
1.728,-2424.593505859,-3.792422533,0
1.730,-2427.354248047,-5.096901894,0
1.732,-2426.149169922,-3.026914120,0
1.734,-2425.916259766,-2.173100233,0
1.736,-2427.296875000,-2.764000654,0
1.738,-2428.634033203,-3.189781904,0
1.740,-2430.093017578,-3.615585327,0
1.742,-2430.925048828,-3.459269524,0
1.744,-2433.543945313,-4.727352619,0
1.746,-2433.918701172,-3.968318462,0
1.748,-2440.180664063,-7.956696510,0
1.750,-2443.660888672,-8.895236969,0
1.752,-2442.041015625,-5.658649921,0
1.754,-2443.794921875,-5.765133858,0
1.756,-2443.200683594,-4.021799564,0
1.758,-2443.412353516,-3.292794228,0
1.760,-2443.984130859,-3.005721331,0
1.762,-2443.684814453,-2.104912043,0
1.764,-2450.690185547,-7.085680962,0
1.766,-2450.866699219,-5.648204327,0
1.768,-2455.233642578,-7.789445877,0
1.770,-2460.857910156,-10.432903290,0
1.772,-2459.804687500,-7.295141220,0
1.774,-2462.426513672,-7.713088989,0
1.776,-2462.857666016,-6.334265232,0
1.778,-2463.590087891,-5.496301651,0
1.780,-2467.590087891,-7.385953426,0
1.782,-2470.639404297,-8.116251945,0
1.784,-2472.336181641,-7.632284164,0
1.786,-2475.625244141,-8.494136810,0
1.788,-2477.562744141,-8.113369942,0
1.790,-2478.942626953,-7.383657455,0
1.792,-2483.596435547,-9.362371445,0
1.794,-2486.516357422,-9.552723885,0
1.796,-2489.033691406,-9.387592316,0
1.798,-2495.334960938,-12.202318192,0
1.800,-2502.641357422,-15.173369408,0
1.802,-2507.605712891,-15.662346840,0
1.804,-2510.870849609,-14.721323013,0
1.806,-2514.965332031,-14.634167671,0
1.808,-2517.989257813,-13.734024048,0
1.810,-2519.836914063,-12.118857384,0
1.812,-2522.730957031,-11.676527977,0
1.814,-2526.632812500,-12.116455078,0
1.816,-2527.180419922,-9.849697113,0
1.818,-2530.883300781,-10.540689468,0
1.820,-2535.682373047,-11.930848122,0
1.822,-2543.177490234,-15.108808517,0
1.824,-2544.533447266,-12.805701256,0
1.826,-2545.526367188,-10.732264519,0
1.828,-2548.802734375,-10.895461082,0
1.830,-2550.350097656,-9.677556038,0
1.832,-2553.640380859,-10.086017609,0
1.834,-2553.518066406,-7.749320030,0
1.836,-2556.853027344,-8.621010780,0
1.838,-2559.634765625,-8.868730545,0
1.840,-2559.646484375,-6.907015800,0
1.842,-2560.552978516,-6.077109814,0
1.844,-2562.906494141,-6.557083130,0
1.846,-2561.248779297,-3.810557365,0
1.848,-2557.558105469,-0.093177728,0
1.850,-2552.998535156,3.473808289,0
1.852,-2545.405029297,8.607815742,0
1.854,-2538.293457031,12.226032257,0
1.856,-2534.223632813,12.674333572,0
1.858,-2529.049560547,13.882042885,0
1.860,-2526.677978516,12.641436577,0
1.862,-2525.279785156,10.919613838,0
1.864,-2522.253173828,10.846997261,0
1.866,-2524.616210938,6.598488808,0
1.868,-2524.165039063,5.482949734,0
1.870,-2521.952148438,5.985573292,0
1.872,-2523.349365234,3.568647861,0
1.874,-2524.977539063,1.509394169,0
1.876,-2523.882324219,2.025687456,0
1.878,-2526.218261719,-0.241247788,0
1.880,-2529.539550781,-2.770825624,0
1.882,-2531.041259766,-3.323138952,0
1.884,-2531.621826172,-3.036037922,0
1.886,-2533.146240234,-3.547082424,0
1.888,-2536.949462891,-5.716753483,0
1.890,-2539.411621094,-6.361419201,0
1.892,-2539.129150391,-4.727940083,0
1.894,-2538.484375000,-3.175846100,0
1.896,-2538.906494141,-2.798238039,0
1.898,-2538.022705078,-1.489013195,0
1.900,-2538.697998047,-1.683278918,0
1.902,-2541.462890625,-3.459800482,0
1.904,-2542.780273438,-3.715400457,0
1.906,-2542.658691406,-2.795177221,0
1.908,-2543.288574219,-2.663993597,0
1.910,-2546.622070313,-4.664593697,0
1.912,-2546.381347656,-3.440758228,0
1.914,-2547.997314453,-3.932946920,0
1.916,-2547.363525391,-2.566020250,0
1.918,-2545.420410156,-0.484463453,0
1.920,-2545.388183594,-0.351729155,0
1.922,-2548.930664063,-3.028678656,0
1.924,-2548.381835938,-1.928888559,0
1.926,-2546.269775391,0.142459571,0
1.928,-2550.091064453,-2.861196041,0
1.930,-2551.076171875,-2.991488218,0
1.932,-2551.153564453,-2.386868715,0
1.934,-2552.905273438,-3.219004631,0
1.936,-2554.359863281,-3.634829760,0
1.938,-2557.618408203,-5.361575127,0
1.940,-2559.794189453,-5.862207890,0
1.942,-2560.071289063,-4.774953842,0
1.944,-2557.164794922,-1.453228354,0
1.946,-2557.700195313,-1.546680093,0
1.948,-2558.131103516,-1.538132668,0
1.950,-2556.190185547,0.313301951,0
1.952,-2558.542724609,-1.586008072,0
1.954,-2561.992431641,-3.916704416,0
1.956,-2560.854736328,-2.161511898,0
1.958,-2560.773681641,-1.618032813,0
1.960,-2560.614501953,-1.134597540,0
1.962,-2562.507080078,-2.354428053,0
1.964,-2565.212646484,-3.935531378,0
1.966,-2563.127441406,-1.439232230,0
1.968,-2566.216064453,-3.521483183,0
1.970,-2571.372070313,-6.749056816,0
1.972,-2568.732177734,-3.196105480,0
1.974,-2568.125000000,-2.013579845,0
1.976,-2568.134521484,-1.573360920,0
1.978,-2568.799072266,-1.740644097,0
1.980,-2570.778320313,-2.893260241,0
1.982,-2570.183837891,-1.787859201,0
1.984,-2568.563964844,-0.130737484,0
1.986,-2570.793212891,-1.835548520,0
1.988,-2571.650146484,-2.094057798,0
1.990,-2573.218017578,-2.848061085,0
1.992,-2576.743408203,-4.957201958,0
1.994,-2578.837890625,-5.484565258,0
1.996,-2577.531250000,-3.249413013,0
1.998,-2579.411865234,-3.989905596,0
2.000,-2581.277587891,-4.554352283,0
2.002,-2580.475341797,-2.918203592,0
2.004,-2583.169433594,-4.365187168,0
2.006,-2583.713623047,-3.818293095,0
2.008,-2583.725830078,-2.979227781,0
2.010,-2579.385498047,1.058536887,0
2.012,-2584.192382813,-2.915275574,0
2.014,-2588.114746094,-5.318092346,0
2.016,-2586.628417969,-2.980225801,0
2.018,-2585.772460938,-1.652199149,0
2.020,-2589.958251953,-4.540516853,0
2.022,-2591.598388672,-4.807086468,0
2.024,-2590.594238281,-2.957874775,0
2.026,-2588.769287109,-0.881224096,0
2.028,-2590.937011719,-2.371238708,0
2.030,-2593.312988281,-3.692340851,0
2.032,-2594.969970703,-4.160520077,0
2.034,-2595.445800781,-3.605951548,0
2.036,-2597.270507813,-4.223866463,0
2.038,-2599.782470703,-5.238870621,0
2.040,-2597.335693359,-2.171537876,0
2.042,-2601.468505859,-4.903345108,0
2.044,-2603.562011719,-5.442037106,0
2.046,-2604.729248047,-5.140345097,0
2.048,-2606.795166016,-5.604913712,0
2.050,-2604.838867188,-2.837788105,0
2.052,-2606.924804688,-3.829435110,0
2.054,-2607.382568359,-3.334374905,0
2.056,-2608.955322266,-3.816598415,0
2.058,-2612.704345703,-5.884281158,0
2.060,-2610.986328125,-3.240398884,0
2.062,-2613.224853516,-4.261376381,0
2.064,-2617.937500000,-6.979730129,0
2.066,-2617.341552734,-4.965144157,0
2.068,-2619.088623047,-5.220525265,0
2.070,-2624.715087891,-8.436359406,0
2.072,-2625.783447266,-7.392451286,0
2.074,-2627.550048828,-7.123765945,0
2.076,-2629.781005859,-7.275730133,0
2.078,-2631.637207031,-7.102511883,0
2.080,-2633.493408203,-6.967780113,0
2.082,-2633.525146484,-5.444067478,0
2.084,-2635.543212891,-5.803722858,0
2.086,-2634.372070313,-3.603111267,0
2.088,-2633.108398438,-1.819595098,0
2.090,-2633.391113281,-1.635073423,0
2.092,-2635.796875000,-3.142786264,0
2.094,-2637.666992188,-3.898895979,0
2.096,-2637.690185547,-3.050538778,0
2.098,-2642.110839844,-5.810802937,0
2.100,-2646.574951172,-7.991562366,0
2.102,-2645.502441406,-5.381322861,0
2.104,-2650.750000000,-8.266734123,0
2.106,-2654.139892578,-9.066153526,0
2.108,-2655.599121094,-8.186306953,0
2.110,-2657.550537109,-7.884912491,0
2.112,-2656.864746094,-5.599145889,0
2.114,-2656.136962891,-3.788742304,0
2.116,-2660.048583984,-5.989127636,0
2.118,-2662.614501953,-6.653835297,0
2.120,-2669.878417969,-10.824834824,0
2.122,-2675.128417969,-12.502416611,0
2.124,-2677.124755859,-11.276742935,0
2.126,-2677.830810547,-9.319823265,0
2.128,-2678.588378906,-7.837833881,0
2.130,-2682.162597656,-8.875936508,0
2.132,-2685.710937500,-9.663284302,0
2.134,-2686.290771484,-7.966640949,0
2.136,-2687.500732422,-7.137405396,0
2.138,-2692.838623047,-9.702742577,0
2.140,-2700.225097656,-13.291512489,0
2.142,-2705.518310547,-14.454681396,0
2.144,-2704.606933594,-10.533380508,0
2.146,-2705.505615234,-8.891648293,0
2.148,-2691.476562500,3.995829105,0
2.150,-2669.742187500,20.012102127,0
2.152,-2655.244384766,26.840749741,0
2.154,-2644.220703125,29.449586868,0
2.156,-2635.264404297,29.870870590,0
2.158,-2638.187011719,20.959522247,0
2.160,-2645.424804688,10.672313690,0
2.162,-2648.995117188,5.523820877,0
2.164,-2653.037353516,1.152258873,0
2.166,-2658.753417969,-3.549523354,0
2.168,-2659.341796875,-3.218446970,0
2.170,-2655.797363281,0.253491372,0
2.172,-2651.837646484,3.277076483,0
2.174,-2649.293457031,4.527544498,0
2.176,-2646.890380859,5.390343189,0
2.178,-2648.241699219,3.141464710,0
2.180,-2653.134277344,-1.361916423,0
2.182,-2656.474121094,-3.656860828,0
2.184,-2657.342285156,-3.519517422,0
2.186,-2667.601562500,-10.716638565,0
2.188,-2678.853271484,-17.086301804,0
2.190,-2686.207275391,-19.008848190,0
2.192,-2692.962646484,-20.038555145,0
2.194,-2696.440185547,-18.290021896,0
2.196,-2697.439453125,-15.002617836,0
2.198,-2695.892089844,-10.465065956,0
2.200,-2691.604980469,-4.805152416,0
2.202,-2693.294921875,-5.051666260,0
2.204,-2693.119384766,-3.792421818,0
2.206,-2693.233886719,-3.038749933,0
2.208,-2695.710937500,-4.289919853,0
2.210,-2696.338378906,-3.824620247,0
2.212,-2696.388427734,-3.013571739,0
2.214,-2698.522949219,-4.004094601,0
2.216,-2697.528564453,-2.340784311,0
2.218,-2701.336181641,-4.782042980,0
2.220,-2704.837890625,-6.442766666,0
2.222,-2707.447021484,-7.040357113,0
2.224,-2708.594970703,-6.368494987,0
2.226,-2706.006835938,-2.940227270,0
2.228,-2704.658935547,-1.238499880,0
2.230,-2706.665283203,-2.523682356,0
2.232,-2709.283203125,-3.999090910,0
2.234,-2709.823486328,-3.530543089,0
2.236,-2710.654785156,-3.392414093,0
2.238,-2713.353027344,-4.737167358,0
2.240,-2716.018066406,-5.757308960,0
2.242,-2716.278076172,-4.679992199,0
2.244,-2715.857177734,-3.312665224,0
2.246,-2716.166748047,-2.817200661,0
2.248,-2717.043945313,-2.873306036,0
2.250,-2718.260742188,-3.181188345,0
2.252,-2719.011718750,-3.058269501,0
2.254,-2718.374023438,-1.882758737,0
2.256,-2723.823486328,-5.702647209,0
2.258,-2733.200683594,-11.728628159,0
2.260,-2749.713134766,-21.965009689,0
2.262,-2780.733642578,-41.210395813,0
2.264,-2823.204101563,-65.084411621,0
2.266,-2849.338134766,-70.946754456,0
2.268,-2863.320800781,-66.055282593,0
2.270,-2874.905029297,-60.385459900,0
2.272,-2877.616943359,-49.075080872,0
2.274,-2886.101562500,-44.768093109,0
2.276,-2896.785156250,-43.128593445,0
2.278,-2912.220458984,-45.549011230,0
2.280,-2956.415283203,-69.799949646,0
2.282,-2959.519531250,-56.702564240,0
2.284,-2897.211914063,4.359508514,0
2.286,-2759.779296875,110.281227112,0
2.288,-2535.605957031,260.128021240,0
2.290,-2307.947021484,379.385009766,0
2.292,-2033.202880859,508.760437012,0
2.294,-1645.695312500,697.088256836,0
2.296,-1251.098754883,849.077209473,0
2.298,-1003.410766602,853.028503418,0
2.300,-912.101196289,734.475585938,0
2.302,-858.551513672,612.900634766,0
2.304,-909.529602051,437.045166016,0
2.306,-1065.987915039,218.231430054,0
2.308,-1140.784912109,111.558624268,0
2.310,-1230.871704102,16.700094223,0
2.312,-1417.256225586,-131.975067139,0
2.314,-1572.587280273,-223.457443237,0
2.316,-1728.414916992,-294.995635986,0
2.318,-1911.276611328,-371.662017822,0
2.320,-2089.596435547,-427.757965088,0
2.322,-2243.177490234,-452.146850586,0
2.324,-2366.663085938,-447.708312988,0
2.326,-2457.934082031,-419.200683594,0
2.328,-2517.774414063,-372.582489014,0
2.330,-2572.395996094,-332.265625000,0
2.332,-2619.107177734,-294.755798340,0
2.334,-2639.682373047,-245.254318237,0
2.336,-2659.489501953,-206.156173706,0
2.338,-2681.311035156,-177.313796997,0
2.340,-2695.228515625,-148.733489990,0
2.342,-2706.917724609,-124.771499634,0
2.344,-2716.753417969,-104.693214417,0
2.346,-2726.075927734,-88.677803040,0
2.348,-2737.150878906,-77.584426880,0
2.350,-2743.621337891,-65.375053406,0
2.352,-2750.417480469,-56.132579803,0
2.354,-2756.623779297,-48.485046387,0
2.356,-2762.746582031,-42.472229004,0
2.358,-2767.604492188,-36.811870575,0
2.360,-2775.136230469,-34.489082336,0
2.362,-2776.726318359,-28.061250687,0
2.364,-2777.563964844,-22.476549149,0
2.366,-2781.317626953,-20.400968552,0
2.368,-2783.624511719,-17.661378860,0
2.370,-2786.129638672,-15.685035706,0
2.372,-2788.112548828,-13.741444588,0
2.374,-2790.930908203,-12.879714012,0
2.376,-2792.011474609,-10.857929230,0
2.378,-2791.807861328,-8.286452293,0
2.380,-2791.220458984,-5.988125801,0
2.382,-2792.459960938,-5.621356010,0
2.384,-2791.142578125,-3.347496271,0
2.386,-2788.420898438,-0.486729980,0
2.388,-2785.447021484,1.934334040,0
2.390,-2790.157470703,-2.159110546,0
2.392,-2791.313964844,-2.578758717,0
2.394,-2792.394287109,-2.845919132,0
2.396,-2793.097900391,-2.760753155,0
2.398,-2795.005615234,-3.630913734,0
2.400,-2794.707275391,-2.592001677,0
2.402,-2792.235107422,-0.093291260,0
2.404,-2796.168212891,-3.131453753,0
2.406,-2797.087402344,-3.150458336,0
2.408,-2794.645263672,-0.551094055,0
2.410,-2796.627685547,-1.970407486,0
2.412,-2800.311035156,-4.397240639,0
2.414,-2801.260253906,-4.158408165,0
2.416,-2806.343505859,-7.187808990,0
2.418,-2808.033447266,-6.904834270,0
2.420,-2806.659667969,-4.301926136,0
2.422,-2805.857666016,-2.721995831,0
2.424,-2805.213134766,-1.615822196,0
2.426,-2807.806640625,-3.273891449,0
2.428,-2807.408691406,-2.236896276,0
2.430,-2810.120849609,-3.849252462,0
2.432,-2812.258789063,-4.656530380,0
2.434,-2813.703369141,-4.745363712,0
2.436,-2814.989746094,-4.691154480,0
2.438,-2815.296875000,-3.887525558,0
2.440,-2814.605224609,-2.485703707,0
2.442,-2817.793701172,-4.413245201,0
2.444,-2817.481933594,-3.189926386,0
2.446,-2819.853515625,-4.325569630,0
2.448,-2820.729248047,-4.045327663,0
2.450,-2826.153808594,-7.365508080,0
2.452,-2831.300537109,-9.731525421,0
2.454,-2831.285156250,-7.556992531,0
2.456,-2832.007812500,-6.439562321,0
2.458,-2833.838378906,-6.432178974,0
2.460,-2834.648925781,-5.633237839,0
2.462,-2838.592529297,-7.448535919,0
2.464,-2843.554443359,-9.652531624,0
2.466,-2846.918457031,-10.123821259,0
2.468,-2848.721679688,-9.276473999,0
2.470,-2851.199462891,-9.141980171,0
2.472,-2855.237060547,-10.250641823,0
2.474,-2857.704345703,-9.891646385,0
2.476,-2862.322998047,-11.285568237,0
2.478,-2866.218017578,-11.807059288,0
2.480,-2868.015869141,-10.581418991,0
2.482,-2870.946777344,-10.509543419,0
2.484,-2872.959228516,-9.739212036,0
2.486,-2875.665039063,-9.679269791,0
2.488,-2876.000976563,-7.789439678,0
2.490,-2878.486816406,-7.991768837,0
2.492,-2878.684570313,-6.369526386,0
2.494,-2878.527099609,-4.831713676,0
2.496,-2880.397949219,-5.212940216,0
2.498,-2883.437500000,-6.418463230,0
2.500,-2881.843261719,-3.752261877,0
2.502,-2883.176025391,-3.954841852,0
2.504,-2883.870605469,-3.616134882,0
2.506,-2884.616943359,-3.393143415,0
2.508,-2887.922607422,-5.210073471,0
2.510,-2888.814941406,-4.746215343,0
2.512,-2885.352294922,-0.998248458,0
2.514,-2887.822509766,-2.697743654,0
2.516,-2889.050781250,-3.053606510,0
2.518,-2884.286865234,1.330308437,0
2.520,-2884.426513672,0.926014900,0
2.522,-2876.638916016,6.777204514,0
2.524,-2871.616943359,9.177095413,0
2.526,-2866.827880859,10.862318039,0
2.528,-2857.898437500,15.393444061,0
2.530,-2852.558349609,16.125921249,0
2.532,-2851.178466797,13.615378380,0
2.534,-2845.009765625,15.387451172,0
2.536,-2842.364990234,14.024861336,0
2.538,-2839.659423828,13.012438774,0
2.540,-2837.736816406,11.615942001,0
2.542,-2836.694580078,9.845064163,0
2.544,-2831.550537109,11.658039093,0
2.546,-2829.855957031,10.385324478,0
2.548,-2831.753906250,6.601073265,0
2.550,-2831.772705078,5.119590282,0
2.552,-2828.853759766,6.252168655,0
2.554,-2829.016113281,4.736398697,0
2.556,-2830.691406250,2.380754709,0
2.558,-2829.659667969,2.654269457,0
2.560,-2824.913818359,5.755518436,0
2.562,-2822.729492188,6.175297737,0
2.564,-2826.279785156,2.041760445,0
2.566,-2824.375488281,3.068970919,0
2.568,-2822.944091797,3.500393152,0
2.570,-2824.336425781,1.639491558,0
2.572,-2818.746582031,5.622745037,0
2.574,-2817.296386719,5.501065254,0
2.576,-2817.566894531,4.068258286,0
2.578,-2815.648925781,4.655815125,0
2.580,-2816.891357422,2.654913664,0
2.582,-2817.493896484,1.596100688,0
2.584,-2817.695312500,1.084808111,0
2.586,-2814.642822266,3.217920542,0
2.588,-2812.219238281,4.387826920,0
2.590,-2813.232421875,2.624509811,0
2.592,-2811.006103516,3.772865534,0
2.594,-2810.747070313,3.135945320,0
2.596,-2814.705810547,-0.640052259,0
2.598,-2812.613525391,1.129520655,0
2.600,-2808.417724609,4.141992092,0
2.602,-2808.180664063,3.405857563,0
2.604,-2808.950683594,2.050089359,0
2.606,-2805.401611328,4.354807854,0
2.608,-2804.320556641,4.227778435,0
2.610,-2808.242431641,0.237995565,0
2.612,-2810.232177734,-1.362398267,0
2.614,-2806.071533203,2.176347971,0
2.616,-2804.681396484,2.773838282,0
2.618,-2805.812011719,1.277997375,0
2.620,-2803.006103516,3.176386833,0
2.622,-2805.745117188,0.340203047,0
2.624,-2805.490234375,0.462826818,0
2.626,-2804.877685547,0.836440802,0
2.628,-2808.899902344,-2.477769136,0
2.630,-2809.448486328,-2.353936434,0
2.632,-2807.512939453,-0.325340003,0
2.634,-2808.343750000,-0.899189234,0
2.636,-2811.337646484,-3.028044462,0
2.638,-2811.282226563,-2.311932802,0
2.640,-2808.735595703,0.182503983,0
2.642,-2811.144042969,-1.731159210,0
2.644,-2810.226806641,-0.633023798,0
2.646,-2806.609375000,2.321089745,0
2.648,-2808.781494141,0.115947664,0
2.650,-2807.332519531,1.217023492,0
2.652,-2806.199951172,1.827454925,0
2.654,-2811.913574219,-3.022443533,0
2.656,-2809.923339844,-0.802806973,0
2.658,-2803.261718750,4.556758881,0
2.660,-2805.255126953,1.993557453,0
2.662,-2806.756103516,0.383128643,0
2.664,-2806.074462891,0.828151345,0
2.666,-2805.888916016,0.788496852,0
2.668,-2806.966308594,-0.224675611,0
2.670,-2805.469238281,0.989618897,0
2.672,-2807.907714844,-1.126915097,0
2.674,-2808.459716797,-1.305787683,0
2.676,-2811.303466797,-3.227304220,0
2.678,-2811.338134766,-2.537067652,0
2.680,-2811.402343750,-2.023329973,0
2.682,-2809.739990234,-0.280703455,0
2.684,-2812.477783203,-2.347627401,0
2.686,-2812.437500000,-1.794661999,0
2.688,-2810.609375000,0.026123125,0
2.690,-2810.882324219,-0.192110837,0
2.692,-2811.031250000,-0.265191168,0
2.694,-2811.492675781,-0.565102100,0
2.696,-2813.555664063,-2.044035196,0
2.698,-2812.788330078,-0.992927134,0
2.700,-2813.607910156,-1.409704804,0
2.702,-2814.081298828,-1.464585781,0
2.704,-2815.149414063,-1.969880581,0
2.706,-2814.983642578,-1.403271317,0
2.708,-2819.539062500,-4.634361267,0
2.710,-2820.038818359,-3.993296623,0
2.712,-2816.249755859,-0.158762738,0
2.714,-2816.074462891,0.012871919,0
2.716,-2815.336669922,0.583889425,0
2.718,-2815.796386719,0.096567966,0
2.720,-2815.388427734,0.392290771,0
2.722,-2815.474609375,0.238183513,0
2.724,-2816.588623047,-0.681205630,0
2.726,-2816.485595703,-0.449769378,0
2.728,-2820.228759766,-3.261181116,0
2.730,-2821.444335938,-3.481722116,0
2.732,-2822.281982422,-3.359503984,0
2.734,-2822.285644531,-2.615792751,0
2.736,-2825.025634766,-4.165535450,0
2.738,-2827.076660156,-4.835039616,0
2.740,-2826.183837891,-3.066083908,0
2.742,-2821.614013672,1.169567585,0
2.744,-2818.703125000,3.173478603,0
2.746,-2820.249267578,1.265850425,0
2.748,-2822.610351563,-0.851949751,0
2.750,-2823.936523438,-1.694029927,0
2.752,-2823.787353516,-1.201491833,0
2.754,-2822.593017578,-0.005665068,0
2.756,-2821.674316406,0.710197747,0
2.758,-2824.929199219,-1.979158282,0
2.760,-2823.225830078,-0.214625090,0
2.762,-2822.813720703,0.153750926,0
2.764,-2823.933105469,-0.751146555,0
2.766,-2821.540771484,1.276501894,0
2.768,-2820.877441406,1.508738756,0
2.770,-2822.605712891,-0.170646638,0
2.772,-2822.535400391,-0.078178711,0
2.774,-2825.776123047,-2.581323862,0
2.776,-2827.052490234,-3.000377417,0
2.778,-2829.123535156,-3.944277525,0
2.780,-2834.969726563,-7.614880562,0
2.782,-2835.781982422,-6.554204941,0
2.784,-2838.518554688,-7.226200581,0
2.786,-2841.193359375,-7.700649261,0
2.788,-2834.094238281,-0.467786342,0
2.790,-2834.735351563,-0.862470806,0
2.792,-2834.826660156,-0.741915762,0
2.794,-2833.679199219,0.315410078,0
2.796,-2835.888183594,-1.472601652,0
2.798,-2836.847656250,-1.891596437,0
2.800,-2840.692626953,-4.461710453,0
2.802,-2845.250488281,-7.015167713,0
2.804,-2846.451416016,-6.390242577,0
2.806,-2846.781250000,-5.226594448,0
2.808,-2847.494384766,-4.619882584,0
2.810,-2852.037109375,-7.126231194,0
2.812,-2855.739501953,-8.422250748,0
2.814,-2857.866455078,-8.204738617,0
2.816,-2856.330566406,-5.186937332,0
2.818,-2860.289550781,-7.113289356,0
2.820,-2867.231445313,-10.931621552,0
2.822,-2869.445312500,-10.224306107,0
2.824,-2867.136474609,-6.156413555,0
2.826,-2854.505615234,5.035760403,0
2.828,-2833.398681641,20.332946777,0
2.830,-2816.551513672,28.917463303,0
2.832,-2805.652343750,30.968025208,0
2.834,-2795.872558594,31.692441940,0
2.836,-2791.786865234,27.826993942,0
2.838,-2793.384765625,20.400083542,0
2.840,-2799.611572266,11.023541451,0
2.842,-2803.217285156,5.769449234,0
2.844,-2806.186279297,2.177970886,0
2.846,-2805.341796875,2.350783587,0
2.848,-2803.010742188,3.641510725,0
2.850,-2797.614257813,7.029456615,0
2.852,-2795.998291016,6.724001884,0
2.854,-2789.773437500,10.071300507,0
2.856,-2787.854980469,9.325237274,0
2.858,-2792.855712891,3.363505363,0
2.860,-2795.127441406,0.849051237,0
2.862,-2796.959716797,-0.764649868,0
2.864,-2805.905029297,-7.552165985,0
2.866,-2819.501220703,-16.448446274,0
2.868,-2826.079101563,-17.909214020,0
2.870,-2824.064941406,-12.362683296,0
2.872,-2825.915527344,-11.054578781,0
2.874,-2829.368408203,-11.283491135,0
2.876,-2825.113281250,-5.466439724,0
2.878,-2827.764892578,-6.313811779,0
2.880,-2829.264648438,-6.077170372,0
2.882,-2827.864013672,-3.637319088,0
2.884,-2826.469970703,-1.744693041,0
2.886,-2824.414794922,0.241444528,0
2.888,-2829.236572266,-3.562393188,0
2.890,-2832.966308594,-5.671569347,0
2.892,-2825.605468750,1.313723445,0
2.894,-2825.278076172,1.276512265,0
2.896,-2830.538818359,-3.098859549,0
2.898,-2830.463134766,-2.351207733,0
2.900,-2831.382812500,-2.544068813,0
2.902,-2830.666015625,-1.421277761,0
2.904,-2828.967529297,0.215724021,0
2.906,-2826.913085938,1.765691996,0
2.908,-2826.861572266,1.413243294,0
2.910,-2824.624511719,2.839092493,0
2.912,-2827.186035156,0.215897739,0
2.914,-2830.847412109,-2.679834127,0
2.916,-2826.862304688,1.015258551,0
2.918,-2824.499511719,2.627413511,0
2.920,-2829.925048828,-2.176424980,0
2.922,-2827.757080078,-0.006473256,0
2.924,-2828.314941406,-0.438999414,0
2.926,-2830.407226563,-1.968769670,0
2.928,-2827.106445313,1.036010265,0
2.930,-2826.255615234,1.467636943,0
2.932,-2826.427490234,1.007787704,0
2.934,-2827.079589844,0.276698112,0
2.936,-2834.540039063,-5.587364674,0
2.938,-2849.505615234,-15.985514641,0
2.940,-2876.565917969,-33.479480743,0
2.942,-2914.354003906,-55.429634094,0
2.944,-2949.967041016,-70.810165405,0
2.946,-2967.068359375,-68.374641418,0
2.948,-2975.941406250,-60.080669403,0
2.950,-2980.964111328,-50.635414124,0
2.952,-2987.889160156,-44.768699646,0
2.954,-2996.591064453,-41.587734222,0
2.956,-3006.985839844,-40.430137634,0
2.958,-3041.647460938,-58.403957367,0
2.960,-3064.358886719,-63.088989258,0
2.962,-3024.814208984,-18.312025070,0
2.964,-2932.704589844,57.397346497,0
2.966,-2752.814941406,184.554122925,0
2.968,-2521.384277344,323.539611816,0
2.970,-2289.309814453,432.138702393,0
2.972,-1962.286621094,590.451538086,0
2.974,-1554.261108398,776.583190918,0
2.976,-1229.602783203,856.510070801,0
2.978,-1085.461425781,778.274291992,0
2.980,-1016.994812012,658.567749023,0
2.982,-990.799499512,532.586608887,0
2.984,-1123.950317383,310.668182373,0
2.986,-1248.634155273,144.652664185,0
2.988,-1298.280883789,73.892517090,0
2.990,-1433.070312500,-47.363601685,0
2.992,-1603.826416016,-169.646530151,0
2.994,-1752.559692383,-247.625518799,0
2.996,-1919.483520508,-322.423095703,0
2.998,-2098.483642578,-389.990814209,0
3.000,-2263.533203125,-431.692443848,0
3.002,-2400.749755859,-442.478942871,0
3.004,-2509.854736328,-429.004241943,0
3.006,-2588.177490234,-394.582397461,0
3.008,-2640.711669922,-347.752868652,0
3.010,-2693.947753906,-311.876342773,0
3.012,-2732.423583984,-272.492584229,0
3.014,-2747.825439453,-223.914993286,0
3.016,-2766.487548828,-188.668487549,0
3.018,-2785.541503906,-161.559844971,0
3.020,-2797.167968750,-134.698806763,0
3.022,-2806.811035156,-112.264297485,0
3.024,-2816.712646484,-95.016845703,0
3.026,-2825.547119141,-80.772071838,0
3.028,-2831.355468750,-67.339462280,0
3.030,-2838.779785156,-58.148868561,0
3.032,-2843.510009766,-48.905368805,0
3.034,-2844.936523438,-39.146472931,0
3.036,-2849.079833984,-33.669502258,0
3.038,-2852.516357422,-28.859739304,0
3.040,-2857.738525391,-26.507814407,0
3.042,-2862.623046875,-24.415939331,0
3.044,-2859.174804688,-16.308088303,0
3.046,-2860.998291016,-14.102132797,0
3.048,-2864.958984375,-14.048607826,0
3.050,-2865.546386719,-11.383502960,0
3.052,-2866.306640625,-9.445000648,0
3.054,-2865.194335938,-6.480868340,0
3.056,-2864.596923828,-4.575954437,0
3.058,-2867.281738281,-5.647277355,0
3.060,-2868.808105469,-5.579297066,0
3.062,-2868.709472656,-4.262789726,0
3.064,-2866.519775391,-1.612365723,0
3.066,-2864.431640625,0.370113999,0
3.068,-2865.434570313,-0.492235720,0
3.070,-2865.685546875,-0.578112245,0
3.072,-2867.774902344,-2.074699402,0
3.074,-2870.237060547,-3.528547287,0
3.076,-2868.950683594,-1.743924499,0
3.078,-2865.815429688,1.082133055,0
3.080,-2865.004882813,1.472025275,0
3.082,-2867.328857422,-0.662534237,0
3.084,-2867.314453125,-0.504095852,0
3.086,-2867.016601563,-0.160502195,0
3.088,-2868.655761719,-1.399713993,0
3.090,-2869.805908203,-1.983200073,0
3.092,-2870.395263672,-2.000676632,0
3.094,-2870.488037109,-1.628324986,0
3.096,-2871.397460938,-1.973701119,0
3.098,-2872.550781250,-2.432104349,0
3.100,-2873.246826172,-2.432941914,0
3.102,-2874.166015625,-2.607247353,0
3.104,-2875.096191406,-2.751359701,0
3.106,-2875.476806641,-2.435906172,0
3.108,-2877.839111328,-3.731829882,0
3.110,-2878.925048828,-3.747168064,0
3.112,-2879.482177734,-3.347690344,0
3.114,-2881.526367188,-4.193708420,0
3.116,-2881.210937500,-3.016310453,0
3.118,-2882.814208984,-3.593077421,0
3.120,-2883.572265625,-3.384197712,0
3.122,-2883.656982422,-2.697885275,0
3.124,-2885.460449219,-3.501047850,0
3.126,-2884.080810547,-1.649951458,0
3.128,-2884.203369141,-1.378586650,0
3.130,-2885.415283203,-2.014885426,0
3.132,-2887.807128906,-3.427402973,0
3.134,-2890.641113281,-4.869770050,0
3.136,-2891.904785156,-4.770533562,0
3.138,-2893.163330078,-4.689181805,0
3.140,-2894.085937500,-4.364653587,0
3.142,-2896.061035156,-4.930818081,0
3.144,-2898.667724609,-5.862528801,0
3.146,-2900.414306641,-5.918027401,0
3.148,-2903.923095703,-7.331895351,0
3.150,-2907.087646484,-8.163873672,0
3.152,-2905.272949219,-4.938158035,0
3.154,-2906.756103516,-4.994287491,0
3.156,-2913.137695313,-8.847814560,0
3.158,-2917.132080078,-9.988242149,0
3.160,-2921.655761719,-11.286806107,0
3.162,-2923.394042969,-10.130571365,0
3.164,-2916.957031250,-2.872683525,0
3.166,-2916.534423828,-1.905657530,0
3.168,-2916.277832031,-1.282573223,0
3.170,-2919.095703125,-3.189120054,0
3.172,-2921.161621094,-4.087218285,0
3.174,-2924.362548828,-5.668495655,0
3.176,-2925.953369141,-5.645997524,0
3.178,-2925.537353516,-4.067847252,0
3.180,-2923.609375000,-1.664256096,0
3.182,-2926.205810547,-3.313838720,0
3.184,-2928.283935547,-4.193709373,0
3.186,-2929.508789063,-4.214302063,0
3.188,-2927.883544922,-2.013730049,0
3.190,-2929.307861328,-2.673974752,0
3.192,-2928.145996094,-1.176053882,0
3.194,-2925.021240234,1.515647531,0
3.196,-2921.206054688,4.145993710,0
3.198,-2917.083984375,6.430678368,0
3.200,-2917.321289063,4.816996574,0
3.202,-2912.652343750,7.378003597,0
3.204,-2903.952392578,12.504785538,0
3.206,-2896.066650391,15.859066963,0
3.208,-2889.621826172,17.347282410,0
3.210,-2883.461425781,18.283489227,0
3.212,-2879.381591797,17.393569946,0
3.214,-2873.339111328,18.227722168,0
3.216,-2872.312744141,14.975176811,0
3.218,-2874.083740234,10.269853592,0
3.220,-2871.864746094,9.713400841,0
3.222,-2868.900634766,9.860190392,0
3.224,-2865.148437500,10.587236404,0
3.226,-2865.064697266,8.299599648,0
3.228,-2865.358154297,6.226942062,0
3.230,-2862.981689453,6.691404343,0
3.232,-2866.055419922,2.813733339,0
3.234,-2866.842285156,1.576324582,0
3.236,-2862.129150391,4.891771793,0
3.238,-2859.306396484,6.000133991,0
3.240,-2858.570068359,5.239464760,0
3.242,-2856.782470703,5.465362549,0
3.244,-2857.393310547,3.775616407,0
3.246,-2857.315917969,2.996816635,0
3.248,-2856.342529297,3.087885380,0
3.250,-2856.305908203,2.430226564,0
3.252,-2855.500000000,2.516935110,0
3.254,-2853.062255859,3.853591204,0
3.256,-2852.386474609,3.522809267,0
3.258,-2850.761230469,4.003922462,0
3.260,-2849.083984375,4.418677330,0
3.262,-2848.124755859,4.182749748,0
3.264,-2849.081298828,2.509187698,0
3.266,-2847.289062500,3.345525026,0
3.268,-2847.000488281,2.826446056,0
3.270,-2844.424560547,4.201869965,0
3.272,-2842.514160156,4.753851414,0
3.274,-2841.249511719,4.681017399,0
3.276,-2838.339599609,5.904046535,0
3.278,-2837.605468750,5.162861824,0
3.280,-2840.467773438,1.789285421,0
3.282,-2840.121337891,1.661110282,0
3.284,-2839.852050781,1.501521230,0
3.286,-2842.303955078,-0.739269853,0
3.288,-2838.874511719,2.092428684,0
3.290,-2838.233398438,2.126046896,0
3.292,-2839.968505859,0.304035962,0
3.294,-2837.302978516,2.309520721,0
3.296,-2837.296142578,1.801600337,0
3.298,-2838.127197266,0.754852772,0
3.300,-2834.055908203,3.753790379,0
3.302,-2833.050537109,3.701517105,0
3.304,-2833.406005859,2.602457047,0
3.306,-2834.373779297,1.271395087,0
3.308,-2834.097656250,1.203468323,0
3.310,-2830.704589844,3.575003862,0
3.312,-2829.052734375,4.065362453,0
3.314,-2829.764892578,2.608046770,0
3.316,-2826.939941406,4.225625515,0
3.318,-2828.215332031,2.294471264,0
3.320,-2831.976562500,-1.140699029,0
3.322,-2829.308105469,1.188270211,0
3.324,-2828.885742188,1.252718210,0
3.326,-2828.180419922,1.522862911,0
3.328,-2829.964111328,-0.202798903,0
3.330,-2832.387451172,-2.042666435,0
3.332,-2828.279296875,1.606522679,0
3.334,-2826.503173828,2.630825281,0
3.336,-2828.328613281,0.626479805,0
3.338,-2825.618896484,2.594811201,0
3.340,-2823.375732422,3.762763739,0
3.342,-2822.773193359,3.395217657,0
3.344,-2820.153320313,4.678390980,0
3.346,-2818.201904297,5.156330585,0
3.348,-2820.257324219,2.411953688,0
3.350,-2823.450439453,-0.607685566,0
3.352,-2821.784667969,0.822979629,0
3.354,-2820.699707031,1.483967304,0
3.356,-2820.177246094,1.560509324,0
3.358,-2819.953613281,1.387716889,0
3.360,-2817.582275391,2.923557997,0
3.362,-2819.138183594,1.063720107,0
3.364,-2816.677490234,2.741137266,0
3.366,-2811.980957031,5.784940243,0
3.368,-2815.333007813,1.892200470,0
3.370,-2818.331054688,-0.860096097,0
3.372,-2813.342285156,3.211007595,0
3.374,-2815.144287109,1.095972061,0
3.376,-2816.430419922,-0.147959277,0
3.378,-2813.893066406,1.858350039,0
3.380,-2814.460693359,1.003903627,0
3.382,-2813.778564453,1.311452031,0
3.384,-2813.756103516,1.037391663,0
3.386,-2814.771972656,0.016828794,0
3.388,-2816.901367188,-1.643211246,0
3.390,-2815.442138672,-0.143108547,0
3.392,-2815.231201172,0.052882180,0
3.394,-2811.424560547,3.001696110,0
3.396,-2811.018554688,2.650519848,0
3.398,-2814.563720703,-0.695779622,0
3.400,-2812.631835938,0.961318076,0
3.402,-2811.979492188,1.255120516,0
3.404,-2810.741943359,1.938733816,0
3.406,-2811.338867188,1.043481827,0
3.408,-2811.903320313,0.372550339,0
3.410,-2813.424072266,-0.892952919,0
3.412,-2811.746582031,0.610181451,0
3.414,-2810.218505859,1.663141012,0
3.416,-2814.365234375,-1.931648254,0
3.418,-2812.117675781,0.245583802,0
3.420,-2811.658691406,0.548006773,0
3.422,-2811.249267578,0.744651914,0
3.424,-2808.575195313,2.658989191,0
3.426,-2809.373535156,1.447199583,0
3.428,-2814.236816406,-2.656955481,0
3.430,-2810.664550781,0.711920440,0
3.432,-2808.896728516,1.928558826,0
3.434,-2809.188476563,1.273183823,0
3.436,-2805.799072266,3.626369715,0
3.438,-2805.041992188,3.409391403,0
3.440,-2805.157470703,2.561771393,0
3.442,-2803.386474609,3.369930506,0
3.444,-2801.385253906,4.177562714,0
3.446,-2801.720214844,2.988535404,0
3.448,-2805.057617188,-0.271228641,0
3.450,-2806.167968750,-1.074674249,0
3.452,-2809.187011719,-3.183925390,0
3.454,-2811.147705078,-4.001313210,0
3.456,-2811.449462891,-3.346699238,0
3.458,-2812.815917969,-3.665824890,0
3.460,-2810.531250000,-1.074154258,0
3.462,-2813.010253906,-2.763591290,0
3.464,-2811.682617188,-1.116760731,0
3.466,-2808.040527344,1.964040399,0
3.468,-2808.251464844,1.363448977,0
3.470,-2808.119628906,1.163074732,0
3.472,-2809.752685547,-0.365450263,0
3.474,-2812.024169922,-2.051002502,0
3.476,-2815.062988281,-3.958638668,0
3.478,-2817.230224609,-4.764632225,0
3.480,-2817.623535156,-4.011555672,0
3.482,-2814.529785156,-0.713946521,0
3.484,-2819.045166016,-4.067083836,0
3.486,-2821.359863281,-4.963622570,0
3.488,-2817.250976563,-0.664860368,0
3.490,-2815.304443359,0.996905208,0
3.492,-2824.654785156,-6.496953964,0
3.494,-2831.271484375,-10.199425697,0
3.496,-2830.015869141,-6.956308365,0
3.498,-2827.938720703,-3.794716358,0
3.500,-2820.572265625,2.777901411,0
3.502,-2799.123046875,18.843084335,0
3.504,-2781.558349609,28.316783905,0
3.506,-2765.581787109,34.449886322,0
3.508,-2754.721191406,35.241039276,0
3.510,-2751.809570313,29.673982620,0
3.512,-2748.629882813,25.552440643,0
3.514,-2749.826904297,18.942953110,0
3.516,-2756.128906250,9.831625938,0
3.518,-2757.271484375,6.758080959,0
3.520,-2756.976074219,5.485968590,0
3.522,-2750.966796875,8.940693855,0
3.524,-2744.628906250,11.883142471,0
3.526,-2740.618652344,12.361343384,0
3.528,-2739.645019531,10.371537209,0
3.530,-2736.935791016,10.173776627,0
3.532,-2733.453857422,10.620975494,0
3.534,-2736.775878906,5.676930428,0
3.536,-2740.080566406,1.845152140,0
3.538,-2746.217773438,-3.338363409,0
3.540,-2759.725341797,-13.102220535,0
3.542,-2771.064208984,-19.009386063,0
3.544,-2770.523193359,-14.364147186,0
3.546,-2770.126464844,-10.863444328,0
3.548,-2771.058593750,-9.174146652,0
3.550,-2770.117431641,-6.403378487,0
3.552,-2764.817626953,-0.858259380,0
3.554,-2763.214843750,0.579004943,0
3.556,-2764.597656250,-0.625169933,0
3.558,-2762.222167969,1.361344457,0
3.560,-2757.062744141,5.071596146,0
3.562,-2758.735595703,2.643516779,0
3.564,-2763.848144531,-1.920288205,0
3.566,-2762.031494141,-0.080775484,0
3.568,-2763.540039063,-1.235985637,0
3.570,-2764.903076172,-2.021434307,0
3.572,-2759.606201172,2.547526360,0
3.574,-2760.141845703,1.564699888,0
3.576,-2760.806640625,0.699889123,0
3.578,-2760.169189453,1.040283322,0
3.580,-2761.786376953,-0.448688835,0
3.582,-2761.871582031,-0.415247083,0
3.584,-2760.315673828,0.886994481,0
3.586,-2758.283935547,2.270115137,0
3.588,-2755.520507813,3.914953947,0
3.590,-2755.167236328,3.319764614,0
3.592,-2755.124755859,2.614979744,0
3.594,-2757.602783203,0.106510669,0
3.596,-2761.013671875,-2.569991112,0
3.598,-2762.913574219,-3.476595163,0
3.600,-2757.860839844,1.225968361,0
3.602,-2755.541259766,2.757564783,0
3.604,-2755.256835938,2.365952253,0
3.606,-2750.351562500,5.655411720,0
3.608,-2751.920166016,3.178564548,0
3.610,-2758.279052734,-2.473578691,0
3.612,-2765.697021484,-7.693343163,0
3.614,-2786.472412109,-22.142005920,0
3.616,-2819.428710938,-42.853824615,0
3.618,-2856.448242188,-62.122768402,0
3.620,-2878.421142578,-65.406951904,0
3.622,-2887.189208984,-57.691040039,0
3.624,-2888.829101563,-46.145629883,0
3.626,-2887.065673828,-34.519020081,0
3.628,-2894.768554688,-32.838756561,0
3.630,-2907.415039063,-35.377014160,0
3.632,-2919.751708984,-37.110191345,0
3.634,-2942.868896484,-46.842876434,0
3.636,-2934.288330078,-29.759262085,0
3.638,-2843.708984375,47.304004669,0
3.640,-2695.969970703,151.698211670,0
3.642,-2499.307617188,270.943420410,0
3.644,-2264.167480469,393.615417480,0
3.646,-1995.400512695,515.179687500,0
3.648,-1639.363647461,677.604125977,0
3.650,-1284.527954102,802.998291016,0
3.652,-1094.072021484,772.676574707,0
3.654,-1001.240051270,673.164611816,0
3.656,-926.545593262,581.660583496,0
3.658,-1000.411682129,394.946166992,0
3.660,-1173.816650391,172.307525635,0
3.662,-1278.362915039,52.702610016,0
3.664,-1366.712280273,-27.724962234,0
3.666,-1484.293579102,-113.014495850,0
3.668,-1626.409667969,-198.432327271,0
3.670,-1788.321411133,-280.263977051,0
3.672,-1940.688232422,-336.486267090,0
3.674,-2093.651123047,-380.677795410,0
3.676,-2234.727539063,-405.803558350,0
3.678,-2348.493896484,-404.104614258,0
3.680,-2433.866943359,-380.699920654,0
3.682,-2500.007324219,-347.537841797,0
3.684,-2551.045410156,-309.999572754,0
3.686,-2591.584472656,-272.637634277,0
3.688,-2625.438720703,-238.379364014,0
3.690,-2642.914550781,-198.995986938,0
3.692,-2649.943359375,-160.239501953,0
3.694,-2659.006591797,-131.678146362,0
3.696,-2668.501953125,-109.800239563,0
3.698,-2679.080566406,-93.626640320,0
3.700,-2689.446044922,-80.881698608,0
3.702,-2696.866699219,-68.678771973,0
3.704,-2699.311035156,-55.317302704,0
3.706,-2706.703369141,-48.773513794,0
3.708,-2711.606201172,-41.747634888,0
3.710,-2711.840820313,-32.652458191,0
3.712,-2715.797851563,-28.473766327,0
3.714,-2718.791748047,-24.474420547,0
3.716,-2718.645263672,-18.921556473,0
3.718,-2717.187500000,-13.582785606,0
3.720,-2718.431152344,-11.531436920,0
3.722,-2720.480224609,-10.562582016,0
3.724,-2724.409912109,-11.271575928,0
3.726,-2724.293212891,-8.675946236,0
3.728,-2724.726318359,-7.084633350,0
3.730,-2726.034423828,-6.527717590,0
3.732,-2726.181396484,-5.191347599,0
3.734,-2726.129638672,-3.997333288,0
3.736,-2726.090576172,-3.078714371,0
3.738,-2724.658203125,-1.280359626,0
3.740,-2723.414794922,-0.028732868,0
3.742,-2721.724609375,1.292121410,0
3.744,-2719.496093750,2.738312244,0
3.746,-2720.958496094,0.992424071,0
3.748,-2722.025634766,-0.058171351,0
3.750,-2724.526611328,-1.990486741,0
3.752,-2723.123046875,-0.456462920,0
3.754,-2719.033935547,2.825418711,0
3.756,-2716.687988281,4.022116184,0
3.758,-2716.670898438,3.141534090,0
3.760,-2719.314453125,0.387364239,0
3.762,-2717.766357422,1.505259395,0
3.764,-2718.208251953,0.827045560,0
3.766,-2718.896240234,0.108154275,0
3.768,-2719.784912109,-0.606984138,0
3.770,-2720.531005859,-1.052526116,0
3.772,-2718.683349609,0.618445635,0
3.774,-2715.900878906,2.645103931,0
3.776,-2720.864501953,-1.803099513,0
3.778,-2722.412353516,-2.606371164,0
3.780,-2721.130859375,-1.030405879,0
3.782,-2721.141845703,-0.809967577,0
3.784,-2718.812255859,1.181925058,0
3.786,-2718.986572266,0.783579051,0
3.788,-2720.842529297,-0.833968520,0
3.790,-2720.660156250,-0.506830931,0
3.792,-2723.843017578,-2.869666815,0
3.794,-2723.057128906,-1.620787024,0
3.796,-2721.363769531,0.056493651,0
3.798,-2722.304199219,-0.687531054,0
3.800,-2721.403564453,0.165777564,0
3.802,-2719.921386719,1.281749845,0
3.804,-2720.354248047,0.660288930,0
3.806,-2720.428710938,0.455666900,0
3.808,-2719.110107422,1.379885435,0
3.810,-2719.343994141,0.891377270,0
3.812,-2720.937255859,-0.545974791,0
3.814,-2723.158935547,-2.152484655,0
3.816,-2724.132080078,-2.431071758,0
3.818,-2726.914550781,-4.054970264,0
3.820,-2727.186767578,-3.365521908,0
3.822,-2729.457275391,-4.383611202,0
3.824,-2732.525390625,-5.795601845,0
3.826,-2730.722412109,-3.105313301,0
3.828,-2732.903320313,-4.111510277,0
3.830,-2733.016113281,-3.285561323,0
3.832,-2727.619873047,1.641714811,0
3.834,-2726.148925781,2.420897961,0
3.836,-2727.407226563,0.904272556,0
3.838,-2729.459472656,-0.892927885,0
3.840,-2732.742919922,-3.248264074,0
3.842,-2734.535156250,-3.920369148,0
3.844,-2730.324707031,0.225735322,0
3.846,-2728.367675781,1.697550058,0
3.848,-2733.136718750,-2.388917208,0
3.850,-2733.542236328,-2.173427582,0
3.852,-2729.125488281,1.744851828,0
3.854,-2729.496093750,1.068879724,0
3.856,-2729.604248047,0.747144878,0
3.858,-2726.752441406,2.799195290,0
3.860,-2729.328125000,0.173816919,0
3.862,-2730.995117188,-1.161390781,0
3.864,-2727.306152344,1.965885520,0
3.866,-2725.912109375,2.613229036,0
3.868,-2725.893798828,2.046845913,0
3.870,-2722.215332031,4.452852726,0
3.872,-2716.515380859,7.896519184,0
3.874,-2712.736816406,9.080509186,0
3.876,-2707.221923828,11.351834297,0
3.878,-2700.283935547,14.225350380,0
3.880,-2695.860107422,14.504700661,0
3.882,-2689.769775391,16.018135071,0
3.884,-2683.280029297,17.505821228,0
3.886,-2677.883300781,17.812921524,0
3.888,-2674.176513672,16.737436295,0
3.890,-2674.140136719,13.046009064,0
3.892,-2670.210693359,13.202920914,0
3.894,-2668.735595703,11.416066170,0
3.896,-2673.565673828,5.122528076,0
3.898,-2672.922363281,4.484376431,0
3.900,-2671.206542969,4.822273731,0
3.902,-2676.574218750,-0.424136251,0
3.904,-2677.197509766,-0.814704776,0
3.906,-2676.124755859,0.200725853,0
3.908,-2677.327636719,-0.779416382,0
3.910,-2676.140380859,0.317257345,0
3.912,-2674.491210938,1.529457927,0
3.914,-2674.798095703,0.950720429,0
3.916,-2669.828613281,4.604678154,0
3.918,-2668.721923828,4.442010880,0
3.920,-2669.891845703,2.545005798,0
3.922,-2666.507324219,4.611717701,0
3.924,-2662.548095703,6.666285515,0
3.926,-2660.657470703,6.655210972,0
3.928,-2656.855712891,8.133145332,0
3.930,-2659.910644531,3.949657917,0
3.932,-2656.455566406,5.759141445,0
3.934,-2654.323730469,6.137427330,0
3.936,-2653.604248047,5.333092690,0
3.938,-2649.178466797,7.590155602,0
3.940,-2649.068359375,5.988890648,0
3.942,-2649.649169922,4.206349373,0
3.944,-2651.025634766,2.200958252,0
3.946,-2653.370117188,-0.111592680,0
3.948,-2649.062744141,3.263245583,0
3.950,-2647.156494141,4.020720959,0
3.952,-2647.541259766,2.827820778,0
3.954,-2639.514404297,8.442575455,0
3.956,-2635.181396484,9.936334610,0
3.958,-2636.172363281,6.957373142,0
3.960,-2635.772949219,5.721875668,0
3.962,-2634.753417969,5.243355751,0
3.964,-2636.366699219,2.823334694,0
3.966,-2637.733154297,1.132990122,0
3.968,-2637.309814453,1.210472465,0
3.970,-2638.413818359,0.082960151,0
3.972,-2635.139892578,2.610888720,0
3.974,-2632.128906250,4.372347832,0
3.976,-2632.959716797,2.754506826,0
3.978,-2631.291503906,3.439937830,0
3.980,-2632.595458984,1.661317110,0
3.982,-2631.312255859,2.290037632,0
3.984,-2629.775146484,2.976625919,0
3.986,-2628.162597656,3.569483042,0
3.988,-2625.333251953,4.976644516,0
3.990,-2628.560791016,1.360423088,0
3.992,-2625.076904297,3.767879486,0
3.994,-2620.530517578,6.466572285,0
3.996,-2622.551513672,3.457567692,0
3.998,-2621.222167969,3.723140240,0
4.000,-2619.682861328,4.092844009,0
4.002,-2619.093750000,3.641471863,0
4.004,-2619.357910156,2.626761436,0
4.006,-2621.214599609,0.598962486,0
4.008,-2620.464599609,1.049295306,0
4.010,-2618.415283203,2.409999847,0
4.012,-2618.759521484,1.606533766,0
4.014,-2617.090087891,2.547916412,0
4.016,-2615.906005859,2.902742386,0
4.018,-2614.995117188,2.966026783,0
4.020,-2613.459960938,3.500925779,0
4.022,-2612.588867188,3.400411129,0
4.024,-2610.575927734,4.210423470,0
4.026,-2615.438232422,-0.507013738,0
4.028,-2617.206298828,-1.769604683,0
4.030,-2615.841308594,-0.314720750,0
4.032,-2612.566894531,2.302105427,0
4.034,-2611.457763672,2.653091192,0
4.036,-2610.903320313,2.494738579,0
4.038,-2613.725341797,-0.254658312,0
4.040,-2615.278076172,-1.405590057,0
4.042,-2609.694335938,3.249642372,0
4.044,-2604.439208984,6.614735126,0
4.046,-2607.344238281,2.885161638,0
4.048,-2611.559814453,-1.034638643,0
4.050,-2608.811523438,1.332769036,0
4.052,-2605.994140625,3.227794647,0
4.054,-2604.682373047,3.530773163,0
4.056,-2606.709960938,1.169178247,0
4.058,-2606.564208984,1.022672296,0
4.060,-2602.851318359,3.683108568,0
4.062,-2601.607910156,3.831752777,0
4.064,-2599.740722656,4.432427406,0
4.066,-2596.732910156,5.786752701,0
4.068,-2595.879638672,5.164383411,0
4.070,-2598.559082031,1.932723045,0
4.072,-2597.911621094,2.006718874,0
4.074,-2595.797607422,3.204963446,0
4.076,-2594.670898438,3.369105101,0
4.078,-2593.472167969,3.552690744,0
4.080,-2593.052978516,3.089300871,0
4.082,-2591.878906250,3.315920591,0
4.084,-2591.281005859,3.044055939,0
4.086,-2595.792480469,-1.141481876,0
4.088,-2596.693359375,-1.588381052,0
4.090,-2596.625244141,-1.182419300,0
4.092,-2593.694580078,1.359694839,0
4.094,-2592.077880859,2.315060616,0
4.096,-2593.524414063,0.675463617,0
4.098,-2594.800537109,-0.467244804,0
4.100,-2589.860839844,3.478509188,0
4.102,-2587.012695313,4.920630932,0
4.104,-2585.471191406,5.026169300,0
4.106,-2586.886718750,2.808195591,0
4.108,-2587.716552734,1.538651824,0
4.110,-2589.266845703,-0.009080365,0
4.112,-2591.335449219,-1.615836024,0
4.114,-2593.061523438,-2.599279404,0
4.116,-2592.597167969,-1.660494566,0
4.118,-2591.837890625,-0.700938404,0
4.120,-2591.660644531,-0.407359391,0
4.122,-2590.496582031,0.588578939,0
4.124,-2590.419677734,0.517575383,0
4.126,-2586.645507813,3.338102579,0
4.128,-2583.524169922,5.023818493,0
4.130,-2584.852539063,2.874336958,0
4.132,-2586.094482422,1.269485116,0
4.134,-2587.348632813,0.011955965,0
4.136,-2587.338378906,0.017326578,0
4.138,-2587.393066406,-0.029065516,0
4.140,-2588.731201172,-1.063437462,0
4.142,-2588.605957031,-0.729566395,0
4.144,-2588.879394531,-0.780254900,0
4.146,-2592.313232422,-3.277597666,0
4.148,-2595.152587891,-4.757415295,0
4.150,-2594.487060547,-3.182577133,0
4.152,-2593.075927734,-1.377854347,0
4.154,-2592.711669922,-0.788256049,0
4.156,-2594.133056641,-1.718604922,0
4.158,-2594.858642578,-1.900931120,0
4.160,-2595.931396484,-2.312891245,0
4.162,-2601.034423828,-5.767990112,0
4.164,-2603.842773438,-6.670345306,0
4.166,-2603.940429688,-5.263814449,0
4.168,-2606.397705078,-6.005324841,0
4.170,-2608.603027344,-6.385860443,0
4.172,-2611.191894531,-6.980425835,0
4.174,-2611.253173828,-5.476722240,0
4.176,-2610.098144531,-3.361317158,0
4.178,-2615.564208984,-6.865605831,0
4.180,-2619.618164063,-8.492851257,0
4.182,-2623.733398438,-9.806245804,0
4.184,-2625.431884766,-8.947966576,0
4.186,-2619.594238281,-2.419168949,0
4.188,-2599.380371094,13.840236664,0
4.190,-2574.089599609,30.434818268,0
4.192,-2559.436523438,35.067844391,0
4.194,-2549.336669922,35.129940033,0
4.196,-2543.975097656,31.493173599,0
4.198,-2543.833251953,24.604509354,0
4.200,-2547.994873047,15.899932861,0
4.202,-2549.191406250,11.435823441,0
4.204,-2552.308837891,6.469852448,0
4.206,-2550.967041016,6.075646877,0
4.208,-2547.575683594,7.363129616,0
4.210,-2546.121826172,6.857404709,0
4.212,-2540.174560547,9.959060669,0
4.214,-2536.423095703,10.663728714,0
4.216,-2532.089599609,11.664335251,0
4.218,-2530.369384766,10.410099983,0
4.220,-2536.834960938,3.067874670,0
4.222,-2539.277343750,0.486420691,0
4.224,-2539.586181641,0.138129756,0
4.226,-2548.864746094,-7.109183788,0
4.228,-2559.067382813,-13.464390755,0
4.230,-2563.729003906,-14.097957611,0
4.232,-2566.239501953,-12.917449951,0
4.234,-2564.007324219,-8.310771942,0
4.236,-2565.402587891,-7.548918724,0
4.238,-2566.122314453,-6.431049824,0
4.240,-2566.597656250,-5.371686459,0
4.242,-2565.681884766,-3.465608120,0
4.244,-2562.383789063,-0.130371496,0
4.246,-2562.089111328,0.127821758,0
4.248,-2561.744873047,0.367196649,0
4.250,-2558.250000000,3.003760338,0
4.252,-2558.484619141,2.153862238,0
4.254,-2557.547607422,2.403931618,0
4.256,-2555.328125000,3.595899343,0
4.258,-2557.332031250,1.238140583,0
4.260,-2556.898925781,1.299901485,0
4.262,-2555.334472656,2.227864742,0
4.264,-2554.818847656,2.133685589,0
4.266,-2557.624755859,-0.522748709,0
4.268,-2561.795410156,-3.650445223,0
4.270,-2561.985107422,-2.986748695,0
4.272,-2555.855468750,2.444563866,0
4.274,-2556.581787109,1.336360216,0
4.276,-2556.466796875,1.128789067,0
4.278,-2555.924804688,1.299498081,0
4.280,-2559.498779297,-1.769041896,0
4.282,-2561.513427734,-2.942896605,0
4.284,-2561.820556641,-2.527699471,0
4.286,-2557.787109375,1.171181917,0
4.288,-2557.472656250,1.155411482,0
4.290,-2557.530517578,0.853690982,0
4.292,-2557.349121094,0.804948986,0
4.294,-2556.057861328,1.630387664,0
4.296,-2560.397460938,-2.107099771,0
4.298,-2573.249511719,-11.634797096,0
4.300,-2594.927734375,-25.909669876,0
4.302,-2629.995605469,-47.426479340,0
4.304,-2669.300781250,-67.456970215,0
4.306,-2689.734619141,-68.358711243,0
4.308,-2695.942138672,-57.995227814,0
4.310,-2702.041015625,-49.850223541,0
4.312,-2706.631835938,-42.342609406,0
4.314,-2714.648193359,-39.167430878,0
4.316,-2720.861328125,-35.295684814,0
4.318,-2744.943115234,-46.181785583,0
4.320,-2783.237060547,-65.702575684,0
4.322,-2769.590332031,-40.487209320,0
4.324,-2690.306396484,30.174814224,0
4.326,-2540.422119141,140.044036865,0
4.328,-2312.441650391,286.237579346,0
4.330,-2083.631347656,400.587646484,0
4.332,-1804.455566406,528.698059082,0
4.334,-1408.164672852,719.426513672,0
4.336,-1028.801391602,854.603149414,0
4.338,-824.649169922,823.465698242,0
4.340,-747.816345215,700.223083496,0
4.342,-691.088745117,588.731811523,0
4.344,-768.137207031,397.970733643,0
4.346,-924.970825195,187.548690796,0
4.348,-990.656433105,94.781143188,0
4.350,-1088.001098633,-1.993818521,0
4.352,-1255.229125977,-131.615325928,0
4.354,-1404.900146484,-218.775344849,0
4.356,-1559.085327148,-290.076721191,0
4.358,-1731.371337891,-359.610748291,0
4.360,-1901.905395508,-412.329467773,0
4.362,-2043.017822266,-430.449249268,0
4.364,-2161.584716797,-427.007080078,0
4.366,-2250.088867188,-400.947937012,0
4.368,-2303.811767578,-353.628173828,0
4.370,-2356.808837891,-316.259979248,0
4.372,-2402.202880859,-281.282836914,0
4.374,-2425.861816406,-237.173828125,0
4.376,-2442.732177734,-197.587509155,0
4.378,-2457.797607422,-165.394470215,0
4.380,-2469.476562500,-137.721954346,0
4.382,-2484.428466797,-118.744934082,0
4.384,-2494.313476563,-100.044120789,0
4.386,-2500.383300781,-82.532035828,0
4.388,-2507.622070313,-69.820755005,0
4.390,-2513.331054688,-58.744651794,0
4.392,-2514.782470703,-46.818462372,0
4.394,-2515.880126953,-37.267658234,0
4.396,-2520.869628906,-32.866306305,0
4.398,-2524.795410156,-28.615703583,0
4.400,-2529.500488281,-25.915765762,0
4.402,-2532.895751953,-22.797157288,0
4.404,-2537.147949219,-21.038169861,0
4.406,-2537.729248047,-16.815010071,0
4.408,-2536.891113281,-12.426208496,0
4.410,-2536.418945313,-9.297472954,0
4.412,-2532.900634766,-4.494903564,0
4.414,-2535.408935547,-5.446713924,0
4.416,-2538.345703125,-6.520443916,0
4.418,-2538.944824219,-5.537341118,0
4.420,-2538.904052734,-4.275148869,0
4.422,-2536.926025391,-1.786573648,0
4.424,-2536.115478516,-0.759165823,0
4.426,-2535.773193359,-0.324268341,0
4.428,-2537.762695313,-1.799490094,0
4.430,-2540.639892578,-3.637440205,0
4.432,-2538.579101563,-1.226248264,0
4.434,-2536.029785156,1.029026031,0
4.436,-2537.017822266,0.031839259,0
4.438,-2540.122558594,-2.390012503,0
4.440,-2537.362792969,0.287736177,0
4.442,-2536.498535156,0.895883977,0
4.444,-2533.219238281,3.247292757,0
4.446,-2529.147949219,5.692246437,0
4.448,-2534.173339844,0.518704832,0
4.450,-2535.429931641,-0.574067950,0
4.452,-2535.084472656,-0.177655175,0
4.454,-2535.853027344,-0.736097217,0
4.456,-2534.774414063,0.266449869,0
4.458,-2531.552978516,2.712778091,0
4.460,-2535.645019531,-1.072655559,0
4.462,-2533.439697266,0.880914629,0
4.464,-2533.180419922,0.886806846,0
4.466,-2536.891845703,-2.196928740,0
4.468,-2533.333007813,1.059248090,0
4.470,-2534.441162109,-0.037994392,0
4.472,-2536.422607422,-1.570615649,0
4.474,-2534.910156250,-0.045325771,0
4.476,-2533.202148438,1.293240547,0
4.478,-2535.151123047,-0.510072231,0
4.480,-2536.125732422,-1.154765248,0
4.482,-2538.349609375,-2.627784491,0
4.484,-2539.235107422,-2.732439756,0
4.486,-2538.265869141,-1.371452093,0
4.488,-2538.100097656,-0.937757730,0
4.490,-2538.959716797,-1.397878528,0
4.492,-2536.421630859,0.886867940,0
4.494,-2535.722656250,1.233269811,0
4.496,-2540.872558594,-3.046111584,0
4.498,-2542.534912109,-3.662026644,0
4.500,-2541.916748047,-2.367577553,0
4.502,-2541.181884766,-1.269792914,0
4.504,-2541.854736328,-1.510893106,0
4.506,-2544.504882813,-3.236371279,0
4.508,-2547.209960938,-4.621007442,0
4.510,-2548.159912109,-4.332992077,0
4.512,-2549.273193359,-4.236001968,0
4.514,-2551.568603516,-5.079764843,0
4.516,-2553.786621094,-5.676068306,0
4.518,-2556.934814453,-6.863150597,0
4.520,-2559.061279297,-6.991879463,0
4.522,-2559.020751953,-5.406537533,0
4.524,-2560.020996094,-4.982995987,0
4.526,-2559.187011719,-3.226977110,0
4.528,-2559.110107422,-2.449960470,0
4.530,-2556.315185547,0.268329501,0
4.532,-2558.633789063,-1.594629288,0
4.534,-2559.849609375,-2.185971498,0
4.536,-2558.426269531,-0.593213320,0
4.538,-2557.079833984,0.585911155,0
4.540,-2562.252197266,-3.567169666,0
4.542,-2561.930419922,-2.524117708,0
4.544,-2560.647949219,-0.965785027,0
4.546,-2559.114501953,0.441454291,0
4.548,-2553.082519531,5.034955025,0
4.550,-2553.837158203,3.329095364,0
4.552,-2557.850341797,-0.532096028,0
4.554,-2554.723876953,2.017759800,0
4.556,-2553.643798828,2.409485817,0
4.558,-2550.354492188,4.432174206,0
4.560,-2543.614501953,8.689471245,0
4.562,-2537.751708984,11.318309784,0
4.564,-2533.828369141,11.854410172,0
4.566,-2526.235107422,15.125703812,0
4.568,-2521.793945313,15.218592644,0
4.570,-2515.144531250,17.008239746,0
4.572,-2507.111328125,19.476297379,0
4.574,-2504.673339844,17.044258118,0
4.576,-2501.040527344,16.081975937,0
4.578,-2493.847900391,18.102230072,0
4.580,-2493.059570313,14.692434311,0
4.582,-2492.579589844,11.800709724,0
4.584,-2490.207031250,11.023540497,0
4.586,-2489.314453125,9.267897606,0
4.588,-2486.925048828,9.066653252,0
4.590,-2488.723632813,5.652853966,0
4.592,-2486.947753906,5.777937412,0
4.594,-2484.121093750,6.692218304,0
4.596,-2484.166015625,5.170131683,0
4.598,-2486.225830078,2.419010639,0
4.600,-2483.481933594,4.015537262,0
4.602,-2479.043457031,6.575290680,0
4.604,-2478.654296875,5.416770458,0
4.606,-2479.012207031,3.934569597,0
4.608,-2475.868408203,5.505390167,0
4.610,-2473.867431641,5.838289261,0
4.612,-2469.725097656,7.762538910,0
4.614,-2466.968261719,8.181628227,0
4.616,-2464.277832031,8.455962181,0
4.618,-2464.241455078,6.604950905,0
4.620,-2462.173583984,6.745441437,0
4.622,-2456.986083984,9.281211853,0
4.624,-2453.105468750,10.236795425,0
4.626,-2452.072265625,8.765498161,0
4.628,-2449.490478516,8.825509071,0
4.630,-2450.409667969,6.149252415,0
4.632,-2451.419189453,3.997489452,0
4.634,-2450.427001953,3.880843163,0
4.636,-2450.357910156,3.072063446,0
4.638,-2448.518554688,3.819893599,0
4.640,-2447.505615234,3.758988857,0
4.642,-2448.793701172,1.921634436,0
4.644,-2446.902587891,2.965499640,0
4.646,-2446.111816406,2.921584606,0
4.648,-2443.335693359,4.431463718,0
4.650,-2438.542480469,7.174641609,0
4.652,-2438.916259766,5.289408684,0
4.654,-2439.237792969,3.863872051,0
4.656,-2438.011718750,3.958859921,0
4.658,-2442.175537109,-0.159479022,0
4.660,-2439.352783203,2.071423769,0
4.662,-2435.961425781,4.248852730,0
4.664,-2437.552978516,2.066654205,0
4.666,-2431.790039063,6.089699268,0
4.668,-2428.752441406,7.098803997,0
4.670,-2431.327392578,3.518604517,0
4.672,-2431.239013672,2.805324316,0
4.674,-2431.442871094,2.023384571,0
4.676,-2432.079833984,1.078379631,0
4.678,-2431.907470703,0.972766578,0
4.680,-2430.676025391,1.714315772,0
4.682,-2427.689208984,3.656402349,0
4.684,-2425.108886719,4.850731373,0
4.686,-2420.529541016,7.334311962,0
4.688,-2421.615966797,4.859543324,0
4.690,-2421.181396484,4.117600441,0
4.692,-2416.628662109,6.743481159,0
4.694,-2419.570556641,2.956653118,0
4.696,-2419.963867188,1.993756056,0
4.698,-2418.876708984,2.396226406,0
4.700,-2416.942382813,3.368082523,0
4.702,-2413.260009766,5.483677387,0
4.704,-2411.174072266,5.887344837,0
4.706,-2409.169921875,6.137877464,0
4.708,-2405.715820313,7.460194588,0
4.710,-2404.432617188,6.800405979,0
4.712,-2404.582275391,5.172702312,0
4.714,-2405.596191406,3.234540701,0
4.716,-2404.128417969,3.657332420,0
4.718,-2405.601318359,1.699055552,0
4.720,-2405.028808594,1.766689062,0
4.722,-2401.812500000,3.875621080,0
4.724,-2399.395263672,4.894418716,0
4.726,-2398.059570313,4.845594406,0
4.728,-2396.817382813,4.734804630,0
4.730,-2396.271728516,4.106920719,0
4.732,-2393.736083984,5.166459084,0
4.734,-2397.126708984,1.381269097,0
4.736,-2394.468994141,3.141370773,0
4.738,-2389.171142578,6.563735485,0
4.740,-2390.773437500,3.858767986,0
4.742,-2394.135742188,0.386198014,0
4.744,-2393.746826172,0.602849007,0
4.746,-2392.118652344,1.735206842,0
4.748,-2389.322753906,3.524061441,0
4.750,-2389.813476563,2.359288931,0
4.752,-2389.958496094,1.722214222,0
4.754,-2389.563720703,1.646533251,0
4.756,-2387.156005859,3.153186798,0
4.758,-2388.361083984,1.515233874,0
4.760,-2386.520996094,2.609632492,0
4.762,-2386.435546875,2.096201181,0
4.764,-2387.916748047,0.478316784,0
4.766,-2386.581542969,1.410506248,0
4.768,-2384.432373047,2.768521786,0
4.770,-2383.301757813,3.032711744,0
4.772,-2380.148925781,4.810955048,0
4.774,-2381.741699219,2.503027439,0
4.776,-2380.420410156,2.974385738,0
4.778,-2378.505859375,3.802349806,0
4.780,-2381.692138672,0.479206860,0
4.782,-2386.056640625,-3.021747112,0
4.784,-2381.450683594,1.232081771,0
4.786,-2377.252441406,4.223473549,0
4.788,-2376.511962891,3.860916138,0
4.790,-2378.951660156,1.105374455,0
4.792,-2377.199951172,2.222025394,0
4.794,-2373.253417969,4.797790527,0
4.796,-2376.264892578,1.389321804,0
4.798,-2373.622558594,3.135662556,0
4.800,-2369.590087891,5.575083256,0
4.802,-2371.261230469,3.036324024,0
4.804,-2372.020996094,1.770699143,0
4.806,-2371.344726563,1.903175831,0
4.808,-2369.751953125,2.719079018,0
4.810,-2368.253662109,3.280196667,0
4.812,-2368.756591797,2.160064459,0
4.814,-2368.600830078,1.801182747,0
4.816,-2368.355224609,1.591798067,0
4.818,-2367.609130859,1.818323731,0
4.820,-2367.215576172,1.720477700,0
4.822,-2364.098632813,3.762245655,0
4.824,-2365.522460938,1.818873286,0
4.826,-2364.221191406,2.426664352,0
4.828,-2363.963867188,2.087563753,0
4.830,-2365.364013672,0.534556985,0
4.832,-2369.449218750,-2.761590004,0
4.834,-2369.013916016,-1.809300065,0
4.836,-2369.478515625,-1.768567443,0
4.838,-2370.919189453,-2.495941162,0
4.840,-2371.744873047,-2.583524942,0
4.842,-2371.829345703,-2.075070143,0
4.844,-2370.460449219,-0.549188495,0
4.846,-2369.376464844,0.415911883,0
4.848,-2374.836181641,-3.922885895,0
4.850,-2375.734375000,-3.749627829,0
4.852,-2378.087890625,-4.746925354,0
4.854,-2381.762695313,-6.550088882,0
4.856,-2383.633789063,-6.549833298,0
4.858,-2384.149658203,-5.495434284,0
4.860,-2384.613525391,-4.634892464,0
4.862,-2387.078369141,-5.521936417,0
4.864,-2388.878173828,-5.694681644,0
4.866,-2386.923828125,-2.909026623,0
4.868,-2385.742919922,-1.344193220,0
4.870,-2388.706054688,-3.349987030,0
4.872,-2391.542236328,-4.811530113,0
4.874,-2391.344238281,-3.588198185,0
4.876,-2389.274169922,-1.180699468,0
4.878,-2376.044189453,9.371442795,0
4.880,-2354.726074219,23.869470596,0
4.882,-2335.968261719,33.154079437,0
4.884,-2326.179199219,33.399692535,0
4.886,-2318.718994141,31.779588699,0
4.888,-2321.168701172,22.811861038,0
4.890,-2325.148925781,14.646545410,0
4.892,-2328.504882813,8.781531334,0
4.894,-2332.176513672,3.974370003,0
4.896,-2330.029785156,4.760792732,0
4.898,-2328.425048828,4.950816154,0
4.900,-2327.197998047,4.804931641,0
4.902,-2326.721191406,4.107933044,0
4.904,-2321.410888672,7.325173855,0
4.906,-2312.461669922,12.657726288,0
4.908,-2311.793945313,10.364120483,0
4.910,-2313.803466797,6.498024940,0
4.912,-2313.385986328,5.378582478,0
4.914,-2314.565185547,3.266085863,0
4.916,-2324.607177734,-5.270071507,0
4.918,-2337.155029297,-13.858030319,0
4.920,-2344.369384766,-16.389600754,0
4.922,-2344.918212891,-13.173994064,0
4.924,-2345.754394531,-10.896713257,0
4.926,-2348.900146484,-10.921788216,0
4.928,-2346.394287109,-6.545673847,0
4.930,-2344.284423828,-3.449964285,0
4.932,-2340.400634766,0.337420225,0
4.934,-2341.302246094,-0.438772976,0
4.936,-2344.657226563,-2.950807095,0
4.938,-2340.998779297,0.550360799,0
4.940,-2342.522216797,-0.756729722,0
4.942,-2344.214843750,-1.905076265,0
4.944,-2340.140136719,1.687470436,0
4.946,-2342.018554688,-0.148564681,0
4.948,-2343.136230469,-0.984691083,0
4.950,-2341.594238281,0.433382422,0
4.952,-2346.039794922,-3.120618582,0
4.954,-2346.443847656,-2.741372347,0
4.956,-2345.534423828,-1.424706817,0
4.958,-2342.878173828,0.957757056,0
4.960,-2341.602294922,1.737308621,0
4.962,-2342.619628906,0.559879780,0
4.964,-2343.583740234,-0.314289510,0
4.966,-2341.638671875,1.268399477,0
4.968,-2339.678466797,2.511136532,0
4.970,-2340.151367188,1.585119367,0
4.972,-2339.367431641,1.842595816,0
4.974,-2342.068359375,-0.667481482,0
4.976,-2342.274902344,-0.679909587,0
4.978,-2338.286376953,2.573379040,0
4.980,-2336.874511719,3.099655151,0
4.982,-2336.562500000,2.653477192,0
4.984,-2333.378906250,4.539923668,0
4.986,-2331.197998047,5.227150917,0
4.988,-2336.214843750,0.163521558,0
4.990,-2351.895263672,-12.068502426,0
4.992,-2380.079101563,-31.306861877,0
4.994,-2420.191406250,-55.547615051,0
4.996,-2452.937500000,-68.671913147,0
4.998,-2465.688720703,-63.328430176,0
5.000,-2472.155273438,-54.284145355,0
5.002,-2477.437500000,-46.328914642,0
5.004,-2483.647949219,-40.863311768,0
5.006,-2492.010498047,-38.286254883,0
5.008,-2500.646728516,-36.494941711,0
5.010,-2534.356933594,-54.603309631,0
5.012,-2553.600585938,-57.435745239,0
5.014,-2511.645263672,-12.040099144,0
5.016,-2412.443603516,67.791419983,0
5.018,-2225.059326172,198.467468262,0
5.020,-1991.675659180,335.879760742,0
5.022,-1748.641723633,450.260437012,0
5.024,-1412.909545898,611.319580078,0
5.026,-1001.136962891,795.728027344,0
5.028,-679.499145508,869.051025391,0
5.030,-547.441040039,778.630371094,0
5.032,-490.740142822,649.693664551,0
5.034,-484.425964355,510.221679688,0
5.036,-629.390014648,284.085571289,0
5.038,-747.214782715,129.312301636,0
5.040,-799.615295410,59.819484711,0
5.042,-948.141540527,-68.993240356,0
5.044,-1111.718261719,-180.885406494,0
5.046,-1252.457397461,-250.149154663,0
5.048,-1425.113403320,-328.844238281,0
5.050,-1594.381835938,-387.415863037,0
5.052,-1750.337890625,-422.617187500,0
5.054,-1896.576416016,-442.437500000,0
5.056,-2013.773315430,-435.265594482,0
5.058,-2093.836914063,-400.806304932,0
5.060,-2147.526367188,-353.492187500,0
5.062,-2194.911865234,-311.789703369,0
5.064,-2235.121337891,-273.773651123,0
5.066,-2250.625244141,-224.990631104,0
5.068,-2248.745605469,-173.528625488,0
5.070,-2258.285156250,-142.384490967,0
5.072,-2269.418212891,-119.400955200,0
5.074,-2270.899658203,-94.018508911,0
5.076,-2284.792236328,-83.929626465,0
5.078,-2289.317382813,-68.797348022,0
5.080,-2292.433593750,-55.931919098,0
5.082,-2300.917480469,-50.100578308,0
5.084,-2305.104980469,-42.223499298,0
5.086,-2317.182128906,-42.233356476,0
5.088,-2320.447021484,-35.387004852,0
5.090,-2317.564941406,-25.281358719,0
5.092,-2324.494628906,-25.052650452,0
5.094,-2330.003173828,-23.769571304,0
5.096,-2324.726806641,-14.383349419,0
5.098,-2320.344970703,-7.778802872,0
5.100,-2328.337158203,-12.266198158,0
5.102,-2334.572998047,-14.390396118,0
5.104,-2328.758056641,-6.669584274,0
5.106,-2325.545410156,-2.688769817,0
5.108,-2326.572509766,-2.890000582,0
5.110,-2322.944580078,0.573855937,0
5.112,-2324.013671875,-0.385152668,0
5.114,-2331.895751953,-6.429972649,0
5.116,-2331.949218750,-5.042695522,0
5.118,-2330.274658203,-2.619619608,0
5.120,-2337.261474609,-7.471496582,0
5.122,-2342.767578125,-10.093505859,0
5.124,-2348.890136719,-12.612320900,0
5.126,-2358.076171875,-16.954061508,0
5.128,-2352.197998047,-8.614539146,0
5.130,-2340.364501953,2.503491163,0
5.132,-2334.538330078,6.478653908,0
5.134,-2337.470458984,2.758414268,0
5.136,-2327.346679688,10.019329071,0
5.138,-2325.210693359,9.453885078,0
5.140,-2337.353515625,-2.091372252,0
5.142,-2342.155029297,-5.361054897,0
5.144,-2353.716064453,-13.161353111,0
5.146,-2356.796875000,-12.632612228,0
5.148,-2354.631835938,-8.141435623,0
5.150,-2356.609619141,-7.870357990,0
5.152,-2361.977539063,-10.296257019,0
5.154,-2367.305175781,-12.151875496,0
5.156,-2354.025146484,0.877583563,0
5.158,-2342.469726563,9.669880867,0
5.160,-2332.216308594,15.495795250,0
5.162,-2314.567382813,25.778762817,0
5.164,-2320.088623047,15.755770683,0
5.166,-2319.328857422,12.845132828,0
5.168,-2307.384277344,19.280740738,0
5.170,-2331.221191406,-3.543601274,0
5.172,-2376.587158203,-38.040439606,0
5.174,-2399.797607422,-47.638957977,0
5.176,-2384.791992188,-25.380994797,0
5.178,-2372.906982422,-10.496729851,0
5.180,-2374.517089844,-9.416481018,0
5.182,-2355.502441406,7.465240479,0
5.184,-2316.198486328,36.375629425,0
5.186,-2303.080810547,38.494251251,0
5.188,-2313.511962891,21.826587677,0
5.190,-2318.467773438,13.121546745,0
5.192,-2328.032958984,2.765969038,0
5.194,-2346.431884766,-12.158723831,0
5.196,-2374.643066406,-31.398412704,0
5.198,-2400.307373047,-44.381622314,0
5.200,-2384.418701172,-22.160970688,0
5.202,-2354.225585938,6.247231007,0
5.204,-2351.439697266,7.025650978,0
5.206,-2342.357177734,12.528363228,0
5.208,-2326.023193359,22.448348999,0
5.210,-2316.996826172,24.479867935,0
5.212,-2339.728271484,1.359920025,0
5.214,-2372.601806641,-24.510261536,0
5.216,-2359.136718750,-8.590590477,0
5.218,-2330.452148438,15.628422737,0
5.220,-2318.247558594,21.647748947,0
5.222,-2329.630126953,7.983890057,0
5.224,-2366.825927734,-22.720125198,0
5.226,-2432.816406250,-68.996238708,0
5.228,-2508.314941406,-112.383323669,0
5.230,-2487.029296875,-70.852897644,0
5.232,-2407.574462891,6.690342903,0
5.234,-2378.463867188,27.844768524,0
5.236,-2363.270019531,33.473979950,0
5.238,-2338.843750000,45.033027649,0
5.240,-2331.870605469,40.448806763,0
5.242,-2329.095947266,33.617813110,0
5.244,-2315.937988281,36.380535126,0
5.246,-2316.910156250,27.539480209,0
5.248,-2333.868408203,8.229834557,0
5.250,-2336.215087891,4.575753212,0
5.252,-2340.899902344,-0.084918782,0
5.254,-2369.240478516,-22.108455658,0
5.256,-2390.683837891,-33.873138428,0
5.258,-2425.950927734,-53.774967194,0
5.260,-2469.741455078,-75.883422852,0
5.262,-2450.122802734,-43.760803223,0
5.264,-2407.221923828,-0.668941081,0
5.266,-2407.440185547,-0.689902782,0
5.268,-2398.031982422,6.780832291,0
5.270,-2399.337402344,4.258433819,0
5.272,-2419.394531250,-12.287572861,0
5.274,-2406.282470703,0.641295791,0
5.276,-2390.571289063,12.718394279,0
5.278,-2398.867675781,3.439247608,0
5.280,-2411.432617188,-7.097620010,0
5.282,-2388.320068359,12.455795288,0
5.284,-2359.185791016,32.347446442,0
5.286,-2365.401367188,20.324550629,0
5.288,-2362.476562500,18.082551956,0
5.290,-2345.787109375,27.044630051,0
5.292,-2367.750244141,3.952230692,0
5.294,-2382.877441406,-8.691567421,0
5.296,-2360.883056641,10.346552849,0
5.298,-2359.201171875,9.355235100,0
5.300,-2372.109863281,-2.763833284,0
5.302,-2377.478271484,-6.324965954,0
5.304,-2385.034423828,-10.796275139,0
5.306,-2380.822265625,-5.120931625,0
5.308,-2380.048828125,-3.381188393,0
5.310,-2372.099609375,3.552686453,0
5.312,-2350.573242188,19.505821228,0
5.314,-2345.954833984,18.763008118,0
5.316,-2347.882812500,13.093654633,0
5.318,-2342.276611328,14.544217110,0
5.320,-2341.882568359,11.618515968,0
5.322,-2360.277343750,-5.270309925,0
5.324,-2382.756835938,-21.582986832,0
5.326,-2395.470214844,-26.674596786,0
5.328,-2384.388427734,-12.127532005,0
5.330,-2360.614257813,9.058290482,0
5.332,-2346.695312500,17.870973587,0
5.334,-2343.884765625,16.085437775,0
5.336,-2345.680908203,11.113788605,0
5.338,-2352.351806641,3.455456972,0
5.340,-2349.695312500,4.753645420,0
5.342,-2349.528564453,3.826993227,0
5.344,-2356.685302734,-2.589738607,0
5.346,-2359.523681641,-4.221854687,0
5.348,-2356.329589844,-0.799242139,0
5.350,-2353.484863281,1.590833187,0
5.352,-2367.779052734,-9.880347252,0
5.354,-2368.842773438,-8.511780739,0
5.356,-2356.314453125,3.123902321,0
5.358,-2360.144287109,-0.549052536,0
5.360,-2358.907714844,0.534762800,0
5.362,-2344.530517578,11.598012924,0
5.364,-2343.832519531,9.563352585,0
5.366,-2346.055908203,5.708854675,0
5.368,-2345.615966797,4.782347679,0
5.370,-2346.983154297,2.656170130,0
5.372,-2342.647949219,5.437723160,0
5.374,-2343.983642578,3.190324545,0
5.376,-2341.851562500,4.139541149,0
5.378,-2333.891357422,9.410942078,0
5.380,-2334.465087891,6.873287678,0
5.382,-2334.250488281,5.512569427,0
5.384,-2329.754394531,7.784531593,0
5.386,-2320.893554688,12.946181297,0
5.388,-2307.726562500,20.310077667,0
5.390,-2303.634033203,18.979583740,0
5.392,-2293.700439453,22.487646103,0
5.394,-2289.397460938,20.836860657,0
5.396,-2288.898681641,16.594158173,0
5.398,-2275.827148438,23.073034286,0
5.400,-2270.567138672,22.036621094,0
5.402,-2270.530761719,17.167633057,0
5.404,-2267.077148438,16.038572311,0
5.406,-2259.206298828,18.595960617,0
5.408,-2240.385986328,29.101093292,0
5.410,-2225.202392578,34.443183899,0
5.412,-2225.142089844,26.835807800,0
5.414,-2214.525146484,29.129493713,0
5.416,-2192.159912109,40.050811768,0
5.418,-2192.206787109,31.113819122,0
5.420,-2203.062500000,15.756143570,0
5.422,-2202.270507813,12.870495796,0
5.424,-2211.554443359,2.789538145,0
5.426,-2225.848632813,-8.947905540,0
5.428,-2224.703857422,-6.069087029,0
5.430,-2215.333496094,2.567637444,0
5.432,-2208.280029297,7.483077526,0
5.434,-2215.659423828,0.080689065,0
5.436,-2220.307373047,-3.552412033,0
5.438,-2219.420898438,-2.073444366,0
5.440,-2224.515625000,-5.575213432,0
5.442,-2225.823486328,-5.353431225,0
5.444,-2241.745849609,-16.547554016,0
5.446,-2257.020996094,-24.750726700,0
5.448,-2251.447509766,-14.915305138,0
5.450,-2256.013427734,-15.151892662,0
5.452,-2252.031494141,-8.687604904,0
5.454,-2240.705810547,2.051754951,0
5.456,-2244.624511719,-1.452134371,0
5.458,-2248.853759766,-4.418640137,0
5.460,-2244.952392578,-0.402377963,0
5.462,-2234.242919922,8.016506195,0
5.464,-2234.148681641,6.308279514,0
5.466,-2243.484130859,-2.354461432,0
5.468,-2247.955566406,-5.309011459,0
5.470,-2258.693359375,-12.480539322,0
5.472,-2263.418212891,-13.381842613,0
5.474,-2250.174560547,-0.107470326,0
5.476,-2247.269042969,2.176151752,0
5.478,-2251.715087891,-1.765437841,0
5.480,-2249.497558594,0.351661950,0
5.482,-2255.243652344,-4.195550919,0
5.484,-2261.353027344,-8.014883041,0
5.486,-2256.702636719,-2.616728783,0
5.488,-2259.699951172,-4.366433144,0
5.490,-2260.447509766,-3.977547407,0
5.492,-2260.812011719,-3.377076387,0
5.494,-2267.756103516,-8.027557373,0
5.496,-2270.236083984,-8.172449112,0
5.498,-2277.911621094,-12.325909615,0
5.500,-2284.421142578,-14.649669647,0
5.502,-2276.192626953,-4.994118690,0
5.504,-2269.178466797,1.571080089,0
5.506,-2279.570068359,-6.860422134,0
5.508,-2290.144775391,-13.560410500,0
5.510,-2288.825195313,-9.520409584,0
5.512,-2288.895507813,-7.459529400,0
5.514,-2290.314208984,-6.905026913,0
5.516,-2289.839599609,-5.001381874,0
5.518,-2289.079833984,-3.298985958,0
5.520,-2294.145263672,-6.505686283,0
5.522,-2292.394287109,-3.698124409,0
5.524,-2278.866699219,7.645192146,0
5.526,-2272.967773438,10.534197807,0
5.528,-2280.330566406,2.466575384,0
5.530,-2296.071533203,-10.324395180,0
5.532,-2308.710693359,-17.860418320,0
5.534,-2322.805175781,-24.853504181,0
5.536,-2338.902099609,-31.849748611,0
5.538,-2329.037109375,-17.099166870,0
5.540,-2317.247802734,-4.129741192,0
5.542,-2327.060791016,-10.844163895,0
5.544,-2333.620849609,-13.536438942,0
5.546,-2323.198974609,-2.422543764,0
5.548,-2312.919677734,6.110763550,0
5.550,-2318.249511719,0.607460320,0
5.552,-2333.789062500,-11.613772392,0
5.554,-2343.370361328,-16.484865189,0
5.556,-2349.430664063,-17.534847260,0
5.558,-2353.368652344,-16.700851440,0
5.560,-2352.447021484,-12.272705078,0
5.562,-2345.690673828,-4.290293217,0
5.564,-2345.966796875,-3.551724195,0
5.566,-2359.987060547,-13.666881561,0
5.568,-2371.547119141,-19.620750427,0
5.570,-2381.643310547,-23.112909317,0
5.572,-2385.270019531,-20.797061920,0
5.574,-2381.392578125,-13.159518242,0
5.576,-2385.248291016,-13.233945847,0
5.578,-2387.621093750,-12.138529778,0
5.580,-2377.874511719,-1.860367298,0
5.582,-2380.662109375,-3.614918947,0
5.584,-2401.377685547,-18.923503876,0
5.586,-2415.097900391,-25.389175415,0
5.588,-2409.561035156,-15.440643311,0
5.590,-2394.905517578,-0.610546589,0
5.592,-2382.425781250,9.231529236,0
5.594,-2371.362060547,15.784964561,0
5.596,-2375.308837891,9.207258224,0
5.598,-2378.604492188,4.597950459,0
5.600,-2373.270263672,7.724833965,0
5.602,-2366.067138672,11.610578537,0
5.604,-2354.982177734,17.651802063,0
5.606,-2360.044433594,9.791724205,0
5.608,-2365.003417969,3.758861065,0
5.610,-2354.523193359,11.074671745,0
5.612,-2349.832275391,12.261880875,0
5.614,-2346.027832031,12.495896339,0
5.616,-2331.658447266,20.894866943,0
5.618,-2328.805664063,18.470228195,0
5.620,-2348.782958984,-1.172229171,0
5.622,-2374.419677734,-20.851066589,0
5.624,-2394.298828125,-31.678619385,0
5.626,-2405.955810547,-33.705013275,0
5.628,-2390.059814453,-13.851361275,0
5.630,-2370.796630859,4.209176540,0
5.632,-2375.364746094,-0.279178411,0
5.634,-2374.012451172,0.834679186,0
5.636,-2370.860107422,3.101005793,0
5.638,-2387.954833984,-10.883831978,0
5.640,-2427.746093750,-39.413513184,0
5.642,-2443.587402344,-42.975425720,0
5.644,-2433.856933594,-25.856882095,0
5.646,-2425.272216797,-13.433717728,0
5.648,-2422.000000000,-7.903355122,0
5.650,-2423.394531250,-7.231464863,0
5.652,-2424.045898438,-6.131025791,0
5.654,-2428.677001953,-8.370500565,0
5.656,-2435.147216797,-11.542533875,0
5.658,-2442.016845703,-14.320416451,0
5.660,-2449.924316406,-17.288183212,0
5.662,-2454.483642578,-16.992294312,0
5.664,-2458.198486328,-16.105352402,0
5.666,-2451.212890625,-7.093003750,0
5.668,-2448.883300781,-3.704848528,0
5.670,-2453.998779297,-6.860059738,0
5.672,-2458.792236328,-9.063837051,0
5.674,-2482.734619141,-25.671241760,0
5.676,-2492.510498047,-27.569553375,0
5.678,-2484.666503906,-15.341971397,0
5.680,-2480.938964844,-9.033255577,0
5.682,-2474.735595703,-2.201023817,0
5.684,-2468.372070313,3.237581968,0
5.686,-2475.978271484,-3.397872448,0
5.688,-2481.108398438,-6.632729053,0
5.690,-2484.546875000,-7.833119869,0
5.692,-2502.498046875,-20.054246902,0
5.694,-2514.062500000,-24.592020035,0
5.696,-2511.834228516,-17.393629074,0
5.698,-2522.696289063,-21.976472855,0
5.700,-2544.796630859,-34.281539917,0
5.702,-2558.418457031,-37.257678986,0
5.704,-2559.107910156,-29.513999939,0
5.706,-2564.109619141,-26.845195770,0
5.708,-2586.268798828,-38.114120483,0
5.710,-2630.118652344,-63.748920441,0
5.712,-2666.526855469,-77.898979187,0
5.714,-2682.215087891,-72.789001465,0
5.716,-2702.544189453,-72.424240112,0
5.718,-2721.244873047,-70.874114990,0
5.720,-2723.160888672,-56.613708496,0
5.722,-2734.879150391,-53.146389008,0
5.724,-2767.785888672,-66.929405212,0
5.726,-2812.753662109,-87.030067444,0
5.728,-2828.163330078,-79.674293518,0
5.730,-2761.911376953,-10.439455032,0
5.732,-2626.006347656,97.583038330,0
5.734,-2435.533447266,224.040695190,0
5.736,-2211.161376953,348.760833740,0
5.738,-1960.837890625,465.948547363,0
5.740,-1624.136474609,624.275146484,0
5.742,-1223.122558594,797.436706543,0
5.744,-945.347656250,836.264831543,0
5.746,-823.615173340,745.099365234,0
5.748,-717.981018066,661.673034668,0
5.750,-707.760070801,522.577392578,0
5.752,-832.043762207,309.779998779,0
5.754,-914.196777344,177.040878296,0
5.756,-994.131652832,75.525917053,0
5.758,-1115.204345703,-35.424758911,0
5.760,-1264.455078125,-143.634674072,0
5.762,-1462.674316406,-265.882965088,0
5.764,-1637.247192383,-342.572265625,0
5.766,-1798.080078125,-391.532257080,0
5.768,-1961.720214844,-431.795196533,0
5.770,-2098.203125000,-441.988311768,0
5.772,-2212.420654297,-432.598937988,0
5.774,-2312.673828125,-414.435119629,0
5.776,-2404.845703125,-394.022460938,0
5.778,-2481.234130859,-365.870544434,0
5.780,-2529.083740234,-321.778137207,0
5.782,-2551.333496094,-267.573638916,0
5.784,-2568.865966797,-221.746337891,0
5.786,-2575.812255859,-177.869888306,0
5.788,-2584.747558594,-145.290893555,0
5.790,-2599.191650391,-124.236808777,0
5.792,-2610.196533203,-105.186500549,0
5.794,-2628.313964844,-95.901985168,0
5.796,-2644.245117188,-86.980072021,0
5.798,-2653.713134766,-75.014213562,0
5.800,-2658.318359375,-61.925380707,0
5.802,-2657.034667969,-47.165302277,0
5.804,-2664.125000000,-42.198169708,0
5.806,-2674.650390625,-41.006618500,0
5.808,-2671.551513672,-29.483484268,0
5.810,-2671.363769531,-22.785373688,0
5.812,-2684.800292969,-28.172115326,0
5.814,-2701.042480469,-34.543987274,0
5.816,-2703.072753906,-28.446336746,0
5.818,-2689.257568359,-11.379593849,0
5.820,-2689.804443359,-9.276019096,0
5.822,-2703.604736328,-17.948085785,0
5.824,-2706.651367188,-16.328912735,0
5.826,-2714.995117188,-19.189710617,0
5.828,-2713.618164063,-13.854185104,0
5.830,-2686.751953125,10.120331764,0
5.832,-2688.390625000,6.596825600,0
5.834,-2698.191406250,-2.491936684,0
5.836,-2689.332031250,4.952332497,0
5.838,-2699.404785156,-3.982466698,0
5.840,-2719.206787109,-18.498861313,0
5.842,-2725.721923828,-19.454948425,0
5.844,-2721.937011719,-12.187668800,0
5.846,-2715.467773438,-4.447607517,0
5.848,-2711.531250000,-0.397600889,0
5.850,-2719.634033203,-6.611206532,0
5.852,-2731.010009766,-13.989955902,0
5.854,-2731.381103516,-11.169479370,0
5.856,-2739.259521484,-14.814903259,0
5.858,-2748.945800781,-19.056203842,0
5.860,-2741.602783203,-9.110163689,0
5.862,-2738.863525391,-4.955033779,0
5.864,-2736.212646484,-1.792027473,0
5.866,-2736.717285156,-1.786406636,0
5.868,-2735.491455078,-0.435994595,0
5.870,-2728.082031250,5.423745155,0
5.872,-2727.374267578,4.768955708,0
5.874,-2735.202392578,-2.379298449,0
5.876,-2741.503662109,-6.751639843,0
5.878,-2744.628173828,-7.681303501,0
5.880,-2751.181396484,-11.071112633,0
5.882,-2759.868164063,-15.366971016,0
5.884,-2765.023681641,-15.961727142,0
5.886,-2766.521728516,-13.579685211,0
5.888,-2766.252685547,-10.352561951,0
5.890,-2763.739257813,-6.097126484,0
5.892,-2761.662841797,-3.127099037,0
5.894,-2767.138916016,-6.691211700,0
5.896,-2767.574951172,-5.543500423,0
5.898,-2771.197021484,-7.128696442,0
5.900,-2774.096679688,-7.799654007,0
5.902,-2774.009033203,-5.998170853,0
5.904,-2790.839355469,-17.755226135,0
5.906,-2795.033447266,-17.071430206,0
5.908,-2787.970947266,-7.784710884,0
5.910,-2794.926025391,-11.464047432,0
5.912,-2798.531982422,-11.720923424,0
5.914,-2794.426513672,-5.923136234,0
5.916,-2801.808837891,-10.348554611,0
5.918,-2809.226562500,-13.818073273,0
5.920,-2812.362792969,-13.186516762,0
5.922,-2820.417968750,-16.520988464,0
5.924,-2832.420166016,-22.184556961,0
5.926,-2843.980468750,-26.245582581,0
5.928,-2845.931152344,-21.930227280,0
5.930,-2843.529541016,-15.188625336,0
5.932,-2840.687500000,-9.602867126,0
5.934,-2843.630859375,-9.758041382,0
5.936,-2847.687500000,-10.744601250,0
5.938,-2846.937500000,-7.773391724,0
5.940,-2843.813476563,-3.616085291,0
5.942,-2850.392578125,-7.929517269,0
5.944,-2860.554443359,-14.070975304,0
5.946,-2858.173339844,-9.092041969,0
5.948,-2859.698242188,-8.257486343,0
5.950,-2858.516845703,-5.503500938,0
5.952,-2857.722900391,-3.662934065,0
5.954,-2866.973144531,-10.043390274,0
5.956,-2882.989746094,-20.268730164,0
5.958,-2887.339355469,-19.147415161,0
5.960,-2886.105224609,-13.932193756,0
5.962,-2883.329833984,-8.677553177,0
5.964,-2875.547119141,-0.695881307,0
5.966,-2873.738037109,0.865729332,0
5.968,-2870.217285156,3.411646605,0
5.970,-2859.771484375,10.777974129,0
5.972,-2845.462402344,19.511892319,0
5.974,-2835.986816406,22.545486450,0
5.976,-2851.086425781,5.791173935,0
5.978,-2868.502685547,-9.041617393,0
5.980,-2862.449218750,-2.324124813,0
5.982,-2847.912353516,9.498656273,0
5.984,-2828.716796875,22.317394257,0
5.986,-2803.546142578,36.934677124,0
5.988,-2796.769042969,33.997612000,0
5.990,-2803.422851563,21.267181396,0
5.992,-2798.645996094,20.256313324,0
5.994,-2791.083007813,21.636892319,0
5.996,-2788.900878906,18.525558472,0
5.998,-2786.539062500,16.245628357,0
6.000,-2785.771240234,13.232405663,0
6.002,-2792.605957031,4.976021767,0
6.004,-2798.110595703,-0.411172926,0
6.006,-2785.421875000,9.549156189,0
6.008,-2776.940429688,14.023548126,0
6.010,-2771.047119141,15.490715027,0
6.012,-2754.158691406,25.183355331,0
6.014,-2745.993408203,25.937650681,0
6.016,-2745.257080078,20.746082306,0
6.018,-2742.637939453,18.172769547,0
6.020,-2737.690185547,17.982290268,0
6.022,-2725.535644531,23.439538956,0
6.024,-2714.083007813,27.137977600,0
6.026,-2715.820312500,19.755830765,0
6.028,-2722.856689453,9.892702103,0
6.030,-2740.991943359,-6.410659790,0
6.032,-2756.798095703,-17.279561996,0
6.034,-2755.253906250,-12.238511086,0
6.036,-2743.770751953,-0.587390661,0
6.038,-2736.393798828,5.280641079,0
6.040,-2727.603759766,10.943672180,0
6.042,-2720.642333984,13.926068306,0
6.044,-2735.718750000,-0.894690990,0
6.046,-2743.645507813,-6.861056328,0
6.048,-2722.392822266,11.193346024,0
6.050,-2711.189453125,17.419334412,0
6.052,-2722.168457031,5.009098530,0
6.054,-2723.179687500,3.109386683,0
6.056,-2712.188964844,10.966788292,0
6.058,-2717.363281250,4.505019665,0
6.060,-2730.620605469,-6.807155609,0
6.062,-2733.473144531,-7.513012886,0
6.064,-2731.784423828,-4.530010223,0
6.066,-2732.145263672,-3.803889036,0
6.068,-2730.325439453,-1.543215632,0
6.070,-2728.320312500,0.359321773,0
6.072,-2739.184082031,-8.169978142,0
6.074,-2743.328613281,-9.577804565,0
6.076,-2738.927734375,-4.026548862,0
6.078,-2740.360107422,-4.245741844,0
6.080,-2736.375732422,-0.203317657,0
6.082,-2731.092285156,3.951240301,0
6.084,-2726.891601563,6.340328693,0
6.086,-2731.405029297,1.420858026,0
6.088,-2743.887695313,-8.603462219,0
6.090,-2734.433837891,0.661362410,0
6.092,-2730.903564453,3.260051012,0
6.094,-2742.173095703,-6.229386806,0
6.096,-2740.058837891,-3.200611353,0
6.098,-2738.038330078,-0.917908490,0
6.100,-2736.488769531,0.491273284,0
6.102,-2733.306640625,2.856964111,0
6.104,-2733.888916016,1.769295216,0
6.106,-2738.253173828,-2.018265963,0
6.108,-2738.243652344,-1.562438130,0
6.110,-2733.405517578,2.547770500,0
6.112,-2734.480712891,1.145299315,0
6.114,-2740.861816406,-4.072223663,0
6.116,-2744.275390625,-5.822254658,0
6.118,-2747.519775391,-7.051742554,0
6.120,-2738.875488281,1.238802195,0
6.122,-2730.151855469,7.748325348,0
6.124,-2732.914062500,3.878045559,0
6.126,-2734.221923828,1.999071240,0
6.128,-2743.563232422,-5.710592270,0
6.130,-2753.730468750,-12.349239349,0
6.132,-2759.229492188,-13.881782532,0
6.134,-2761.046875000,-12.210382462,0
6.136,-2753.172119141,-3.372091770,0
6.138,-2738.980957031,8.414686203,0
6.140,-2739.846435547,5.871542454,0
6.142,-2748.140380859,-1.884094000,0
6.144,-2748.218017578,-1.525762558,0
6.146,-2747.577148438,-0.688256919,0
6.148,-2742.819091797,3.165389538,0
6.150,-2733.190673828,9.950603485,0
6.152,-2734.107666016,7.026068211,0
6.154,-2736.849853516,3.331871748,0
6.156,-2729.775634766,8.093527794,0
6.158,-2731.518554688,4.939289093,0
6.160,-2736.642089844,-0.143221363,0
6.162,-2740.855468750,-3.388441086,0
6.164,-2740.575683594,-2.417798281,0
6.166,-2737.879150391,0.216701359,0
6.168,-2747.230712891,-7.104743481,0
6.170,-2754.999023438,-11.567733765,0
6.172,-2755.105957031,-9.080289841,0
6.174,-2761.486083984,-12.024586678,0
6.176,-2770.984130859,-16.739513397,0
6.178,-2796.379150391,-32.770931244,0
6.180,-2830.304443359,-51.874145508,0
6.182,-2849.678955078,-55.414997101,0
6.184,-2844.027832031,-38.704650879,0
6.186,-2821.688720703,-12.728692055,0
6.188,-2783.645507813,19.688859940,0
6.190,-2747.368652344,43.528316498,0
6.192,-2732.466796875,45.445167542,0
6.194,-2717.887695313,46.685001373,0
6.196,-2708.572509766,43.555000305,0
6.198,-2712.526855469,30.800088882,0
6.200,-2710.637451172,25.424879074,0
6.202,-2707.725341797,22.039627075,0
6.204,-2712.909912109,13.109355927,0
6.206,-2714.663330078,8.832201958,0
6.208,-2719.954589844,2.754091263,0
6.210,-2723.807617188,-0.854708910,0
6.212,-2729.062744141,-4.751984596,0
6.214,-2733.641601563,-7.257309437,0
6.216,-2727.476074219,-0.849063396,0
6.218,-2727.282226563,-0.509734869,0
6.220,-2744.075439453,-13.457655907,0
6.222,-2753.936767578,-18.136812210,0
6.224,-2757.630859375,-16.979217529,0
6.226,-2757.936767578,-13.443824768,0
6.228,-2750.108642578,-4.367711067,0
6.230,-2739.418945313,4.916977406,0
6.232,-2744.555908203,-0.171113193,0
6.234,-2748.822021484,-3.451138496,0
6.236,-2756.374755859,-8.558363914,0
6.238,-2762.332031250,-11.289934158,0
6.240,-2757.844238281,-5.290506840,0
6.242,-2762.453613281,-7.699697495,0
6.244,-2769.244140625,-11.270027161,0
6.246,-2765.715576172,-6.021010876,0
6.248,-2767.541503906,-6.103194237,0
6.250,-2767.592773438,-4.786695480,0
6.252,-2772.827880859,-7.794562817,0
6.254,-2786.177001953,-16.445045471,0
6.256,-2798.799072266,-22.607330322,0
6.258,-2804.817626953,-22.264394760,0
6.260,-2801.828125000,-14.991300583,0
6.262,-2797.689697266,-8.441054344,0
6.264,-2790.987304688,-1.352184653,0
6.266,-2793.408447266,-2.934872150,0
6.268,-2814.426025391,-18.629451752,0
6.270,-2809.017333984,-10.282711029,0
6.272,-2783.248291016,12.044759750,0
6.274,-2769.506103516,20.056297302,0
6.276,-2766.466796875,17.963092804,0
6.278,-2780.681396484,2.915372372,0
6.280,-2792.065429688,-6.586662769,0
6.282,-2783.208251953,1.766031861,0
6.284,-2776.911865234,6.270669937,0
6.286,-2768.711425781,11.255132675,0
6.288,-2752.917236328,21.038011551,0
6.290,-2738.498291016,27.577369690,0
6.292,-2730.701171875,27.513120651,0
6.294,-2721.045410156,28.908658981,0
6.296,-2720.606689453,22.825466156,0
6.298,-2726.978027344,12.797555923,0
6.300,-2724.832519531,11.622173309,0
6.302,-2722.784423828,10.632374763,0
6.304,-2727.996582031,4.215712547,0
6.306,-2719.270019531,10.065975189,0
6.308,-2717.265380859,9.388237953,0
6.310,-2719.853515625,5.288877010,0
6.312,-2712.824462891,9.580476761,0
6.314,-2713.741210938,6.738404751,0
6.316,-2716.769042969,2.885894537,0
6.318,-2718.814208984,0.653924644,0
6.320,-2725.743164063,-4.880482197,0
6.322,-2731.557128906,-8.317891121,0
6.324,-2746.431884766,-18.038545609,0
6.326,-2756.575927734,-21.919420242,0
6.328,-2751.918945313,-13.426238060,0
6.330,-2754.186279297,-12.205891609,0
6.332,-2752.321289063,-8.042823792,0
6.334,-2753.004638672,-6.786942959,0
6.336,-2759.215820313,-10.109456062,0
6.338,-2751.416503906,-1.796839118,0
6.340,-2744.028320313,4.348874569,0
6.342,-2747.685791016,0.537604868,0
6.344,-2745.425781250,2.175907612,0
6.346,-2734.232910156,10.397856712,0
6.348,-2731.024169922,10.582695961,0
6.350,-2735.499267578,4.750395775,0
6.352,-2739.558593750,0.537480235,0
6.354,-2739.228759766,0.674621880,0
6.356,-2743.513671875,-2.807955742,0
6.358,-2748.677490234,-6.200219154,0
6.360,-2747.043701172,-3.551607370,0
6.362,-2747.270996094,-2.939226627,0
6.364,-2750.137451172,-4.515387058,0
6.366,-2756.450195313,-8.421792030,0
6.368,-2763.843505859,-12.300523758,0
6.370,-2765.991943359,-11.237814903,0
6.372,-2762.413330078,-5.957131863,0
6.374,-2770.239746094,-10.720453262,0
6.376,-2784.821044922,-19.678787231,0
6.378,-2783.633544922,-14.382025719,0
6.380,-2771.536621094,-1.777155757,0
6.382,-2764.235107422,4.296555996,0
6.384,-2761.702148438,5.311803818,0
6.386,-2753.435546875,10.560883522,0
6.388,-2747.595214844,12.756280899,0
6.390,-2745.970947266,11.184817314,0
6.392,-2745.935058594,8.726997375,0
6.394,-2754.689941406,-0.021662226,0
6.396,-2775.880126953,-16.497861862,0
6.398,-2808.893066406,-38.507984161,0
6.400,-2851.656982422,-63.210681915,0
6.402,-2888.552490234,-77.859275818,0
6.404,-2913.490478516,-79.952461243,0
6.406,-2924.222167969,-70.531089783,0
6.408,-2934.021972656,-62.478862762,0
6.410,-2949.109863281,-60.328887939,0
6.412,-2952.135498047,-49.275127411,0
6.414,-2957.013427734,-42.118423462,0
6.416,-2983.068359375,-53.023075104,0
6.418,-3008.632324219,-61.122367859,0
6.420,-3007.238769531,-46.455120087,0
6.422,-2921.924560547,30.223173141,0
6.424,-2778.957763672,134.701614380,0
6.426,-2606.425781250,238.956375122,0
6.428,-2379.312500000,362.493865967,0
6.430,-2097.255859375,501.310638428,0
6.432,-1739.789428711,667.929016113,0
6.434,-1386.612915039,794.182922363,0
6.436,-1190.335815430,770.347717285,0
6.438,-1062.032958984,698.941406250,0
6.440,-954.579772949,627.187683105,0
6.442,-996.564086914,455.152252197,0
6.444,-1094.722900391,277.657897949,0
6.446,-1183.456176758,146.939514160,0
6.448,-1316.355468750,10.920044899,0
6.450,-1423.826293945,-75.094062805,0
6.452,-1559.770019531,-164.138381958,0
6.454,-1751.889648438,-277.085937500,0
6.456,-1915.807495117,-342.998535156,0
6.458,-2060.539306641,-379.341003418,0
6.460,-2216.267822266,-416.159667969,0
6.462,-2350.425781250,-428.019287109,0
6.464,-2438.039306641,-401.042480469,0
6.466,-2513.051513672,-370.260009766,0
6.468,-2582.164306641,-341.729919434,0
6.470,-2630.351318359,-303.264892578,0
6.472,-2677.341308594,-272.416900635,0
